1935
1927
1923
1919
1889
1886
1887
1855
1823
1787
1780
1789
1791
1776
1754
1758
1776
1779
1768
1745
1755
1782
1793
1842
1929
2014
2064
2101
2301
2768
3599
4007
3184
2370
1742
1407
1407
1578
1713
1753
1759
1749
1735
1717
1694
1706
1729
1744
1738
1715
1728
1751
1765
1759
1746
1769
1792
1799
1792
1779
1791
1820
1826
1820
1811
1839
1865
1873
1865
1858
1885
1916
1931
1933
1925
1955
1982
1997
1996
1997
2027
2057
2064
2061
2039
2059
2091
2068
2018
1993
1971
1955
1930
1881
1858
1851
1839
1787
1782
1750
1758
1762
1758
1729
1725
1732
1744
1744
1731
1715
1729
1751
1757
1738
1728
1744
1744
1742
1744
1729
1750
1775
1776
1754
1744
1762
1776
1775
1755
1745
1774
1787
1783
1769
1760
1793
1799
1793
1774
1770
1789
1802
1808
1776
1765
1808
1837
1853
1830
1872
1917
1936
1936
1936
1963
1966
1931
1914
1893
1893
1904
1905
1872
1808
1776
1779
1776
1762
1737
1739
1755
1758
1744
1725
1717
1743
1751
1747
1727
1773
1887
1972
2003
2018
2215
2675
3439
3939
3207
2411
1809
1425
1344
1458
1633
1741
1759
1718
1677
1666
1680
1690
1682
1670
1679
1702
1713
1712
1703
1716
1744
1754
1751
1735
1744
1771
1780
1777
1761
1779
1808
1824
1821
1808
1821
1847
1863
1858
1853
1874
1910
1933
1934
1931
1948
1984
2001
2009
2001
2019
2035
2044
2032
2003
2006
2007
1984
1947
1904
1889
1875
1854
1812
1782
1777
1778
1771
1747
1725
1741
1754
1750
1730
1712
1730
1744
1744
1729
1710
1727
1739
1741
1718
1706
1723
1734
1734
1728
1715
1738
1744
1743
1729
1719
1737
1755
1758
1744
1729
1751
1774
1774
1755
1749
1776
1791
1790
1771
1757
1775
1791
1789
1771
1760
1779
1795
1791
1775
1773
1792
1805
1804
1783
1777
1797
1808
1808
1793
1785
1803
1813
1813
1795
1796
1826
1846
1869
1872
1898
1940
1966
1968
1969
1984
1999
1971
1947
1921
1917
1929
1927
1903
1854
1823
1834
1837
1819
1791
1783
1799
1807
1798
1777
1780
1799
1809
1808
1801
1859
1974
2064
2089
2150
2422
2986
3851
3866
2935
2185
1661
1407
1431
1585
1727
1795
1791
1754
1718
1716
1733
1743
1741
1725
1729
1759
1770
1769
1755
1767
1794
1802
1794
1776
1789
1817
1825
1821
1808
1821
1847
1860
1858
1850
1865
1890
1904
1904
1899
1915
1948
1968
1969
1963
1983
2007
2023
2026
2017
2034
2065
2073
2066
2045
2046
2045
2026
1985
1945
1932
1920
1899
1863
1822
1819
1820
1808
1787
1767
1772
1780
1777
1768
1747
1762
1778
1782
1774
1747
1763
1776
1773
1766
1752
1763
1779
1778
1767
1747
1765
1778
1785
1769
1749
1765
1779
1778
1772
1754
1774
1791
1789
1776
1763
1781
1795
1794
1776
1758
1777
1792
1786
1773
1757
1779
1793
1791
1773
1763
1782
1795
1792
1782
1774
1791
1801
1797
1776
1762
1786
1798
1796
1776
1763
1790
1802
1794
1774
1770
1791
1804
1803
1779
1772
1787
1798
1801
1782
1787
1829
1870
1894
1893
1902
1920
1942
1968
1955
1927
1921
1915
1907
1881
1867
1876
1857
1823
1782
1772
1782
1786
1776
1747
1744
1755
1770
1761
1741
1735
1759
1772
1823
1904
1983
2043
2106
2335
2812
3603
3985
3184
2333
1664
1335
1375
1572
1712
1740
1730
1718
1707
1694
1674
1679
1704
1715
1714
1699
1709
1733
1744
1744
1729
1739
1765
1783
1787
1766
1779
1802
1813
1814
1804
1814
1845
1859
1858
1850
1870
1901
1921
1923
1910
1929
1963
1983
1983
1977
2000
2032
2047
2047
2038
2064
2085
2085
2069
2031
2023
2019
2000
1959
1905
1886
1878
1860
1823
1791
1791
1797
1789
1769
1744
1746
1762
1767
1751
1731
1735
1761
1759
1744
1726
1742
1754
1758
1748
1729
1749
1771
1771
1754
1735
1751
1774
1776
1761
1743
1760
1781
1789
1772
1751
1770
1791
1794
1778
1762
1776
1792
1794
1776
1766
1781
1798
1799
1778
1762
1780
1803
1799
1783
1767
1792
1807
1803
1779
1773
1792
1804
1807
1791
1781
1801
1819
1813
1797
1785
1808
1822
1823
1805
1790
1808
1820
1823
1808
1808
1855
1899
1919
1918
1915
1937
1968
1992
1974
1936
1932
1936
1932
1905
1886
1886
1863
1835
1799
1785
1803
1808
1799
1776
1765
1781
1792
1787
1764
1760
1778
1808
1875
1947
2011
2064
2174
2485
3056
3919
3830
2906
2145
1581
1351
1449
1648
1761
1757
1739
1732
1728
1713
1697
1699
1729
1742
1742
1726
1731
1759
1775
1776
1759
1764
1790
1801
1801
1789
1795
1822
1837
1831
1819
1842
1872
1887
1884
1863
1871
1904
1923
1923
1917
1935
1967
1984
1989
1985
2006
2032
2047
2046
2032
2041
2064
2070
2047
2011
2000
1992
1969
1931
1883
1861
1854
1842
1817
1782
1777
1779
1773
1751
1727
1735
1750
1755
1741
1712
1724
1744
1749
1739
1717
1732
1748
1751
1743
1725
1739
1754
1761
1749
1733
1744
1759
1761
1744
1728
1743
1760
1759
1742
1728
1744
1763
1761
1746
1732
1746
1762
1769
1750
1729
1753
1776
1774
1749
1738
1758
1765
1763
1746
1740
1756
1773
1775
1750
1739
1758
1776
1777
1761
1747
1765
1780
1782
1765
1755
1776
1791
1790
1775
1762
1783
1796
1799
1787
1797
1842
1882
1904
1901
1895
1914
1952
1968
1930
1898
1904
1920
1911
1879
1865
1861
1834
1802
1776
1759
1773
1776
1765
1742
1739
1755
1761
1753
1737
1731
1759
1810
1878
1933
1955
2027
2267
2741
3494
3882
3132
2368
1777
1415
1360
1516
1686
1749
1728
1711
1715
1713
1706
1685
1689
1713
1730
1727
1711
1715
1741
1757
1755
1741
1745
1774
1790
1791
1777
1791
1809
1819
1818
1807
1813
1840
1859
1859
1845
1865
1898
1914
1920
1910
1932
1963
1975
1973
1969
1985
2011
2026
2026
2011
2026
2044
2039
2025
1984
1978
1968
1949
1915
1871
1852
1843
1835
1803
1777
1776
1783
1776
1761
1743
1751
1764
1773
1760
1739
1750
1767
1770
1755
1733
1746
1763
1770
1754
1739
1758
1779
1781
1770
1755
1759
1779
1778
1764
1750
1766
1783
1779
1770
1757
1776
1799
1792
1773
1754
1772
1786
1792
1776
1762
1779
1792
1793
1776
1763
1782
1791
1793
1787
1776
1793
1806
1805
1793
1778
1797
1812
1814
1797
1794
1809
1822
1822
1815
1834
1882
1920
1936
1934
1924
1966
2000
1990
1936
1912
1936
1951
1936
1904
1878
1871
1851
1833
1808
1786
1793
1802
1788
1771
1758
1775
1788
1787
1766
1760
1792
1870
1957
2009
2035
2189
2526
3134
3905
3627
2766
2085
1603
1384
1441
1635
1767
1797
1763
1741
1744
1742
1740
1726
1730
1750
1759
1761
1747
1754
1775
1791
1788
1776
1781
1811
1823
1821
1808
1809
1840
1847
1850
1842
1849
1882
1898
1901
1891
1904
1936
1952
1959
1958
1977
2007
2022
2021
2011
2023
2053
2073
2075
2055
2064
2082
2081
2054
2011
1991
1984
1963
1925
1881
1871
1872
1858
1830
1795
1792
1807
1805
1789
1767
1776
1792
1793
1783
1765
1776
1792
1799
1790
1775
1789
1808
1811
1805
1787
1798
1809
1808
1793
1776
1787
1805
1808
1799
1781
1799
1801
1801
1785
1776
1786
1804
1797
1785
1765
1795
1801
1795
1776
1751
1761
1785
1788
1776
1766
1776
1791
1791
1774
1775
1782
1794
1802
1782
1743
1783
1814
1808
1794
1776
1793
1808
1829
1807
1807
1852
1899
1927
1923
1914
1951
1978
1987
1950
1904
1907
1921
1927
1904
1868
1855
1842
1813
1785
1761
1768
1775
1759
1739
1724
1744
1759
1779
1741
1727
1751
1814
1920
1996
2036
2119
2370
2851
3623
3957
3184
2350
1687
1334
1330
1535
1709
1756
1723
1687
1693
1700
1693
1676
1670
1703
1715
1714
1700
1701
1730
1747
1747
1735
1737
1764
1777
1779
1765
1767
1801
1824
1820
1805
1808
1842
1869
1870
1854
1862
1903
1929
1936
1919
1933
1971
1997
2004
1995
2001
2035
2057
2058
2035
2042
2070
2071
2047
2000
1969
1968
1947
1910
1859
1834
1835
1825
1803
1760
1751
1767
1766
1760
1728
1731
1757
1764
1754
1728
1728
1753
1763
1750
1730
1738
1761
1767
1759
1743
1751
1776
1782
1765
1741
1751
1776
1776
1767
1747
1759
1776
1779
1773
1755
1765
1792
1797
1786
1758
1771
1795
1799
1789
1765
1776
1798
1805
1788
1763
1772
1793
1797
1780
1763
1776
1794
1797
1781
1763
1783
1801
1803
1790
1770
1787
1817
1826
1823
1827
1872
1916
1936
1933
1911
1940
1984
1981
1941
1900
1907
1923
1923
1893
1855
1829
1815
1806
1777
1753
1763
1777
1775
1744
1729
1744
1767
1771
1746
1725
1774
1870
1958
1998
2006
2162
2546
3211
4000
3600
2733
2007
1503
1320
1416
1630
1744
1751
1708
1669
1679
1691
1690
1679
1670
1694
1713
1725
1712
1711
1738
1756
1754
1739
1739
1773
1793
1797
1777
1775
1809
1831
1841
1826
1829
1857
1884
1891
1878
1883
1917
1943
1958
1950
1963
1995
2015
2022
2012
2021
2046
2066
2074
2061
2062
2074
2071
2046
2000
1969
1968
1949
1920
1872
1845
1843
1835
1811
1776
1760
1776
1779
1771
1741
1744
1770
1773
1765
1743
1744
1765
1775
1761
1744
1744
1767
1778
1771
1744
1747
1777
1786
1775
1748
1755
1775
1778
1775
1755
1763
1777
1786
1783
1758
1763
1786
1787
1781
1770
1776
1796
1802
1789
1767
1776
1794
1797
1783
1770
1776
1792
1798
1791
1776
1786
1798
1806
1801
1778
1791
1809
1814
1814
1809
1854
1904
1929
1926
1911
1943
1984
1990
1952
1911
1920
1940
1934
1905
1861
1840
1821
1808
1782
1761
1774
1785
1779
1761
1739
1750
1772
1775
1761
1744
1770
1841
1920
1967
1959
2075
2394
2975
3792
3693
2841
2163
1658
1382
1388
1568
1712
1757
1731
1697
1706
1716
1707
1699
1691
1716
1737
1744
1725
1714
1741
1761
1767
1759
1749
1779
1800
1803
1786
1781
1808
1831
1840
1830
1826
1859
1875
1877
1871
1870
1895
1919
1931
1921
1929
1958
1979
1987
1979
1984
2013
2035
2046
2032
2031
2046
2044
2027
1983
1958
1955
1938
1904
1853
1827
1830
1814
1795
1760
1747
1763
1764
1747
1723
1724
1745
1761
1754
1725
1723
1751
1757
1750
1731
1733
1749
1753
1745
1730
1733
1755
1761
1751
1734
1738
1757
1760
1755
1739
1744
1766
1776
1769
1751
1749
1769
1775
1769
1745
1757
1773
1774
1767
1749
1757
1776
1778
1777
1766
1782
1817
1843
1858
1863
1885
1919
1951
1973
1947
1929
1925
1934
1929
1905
1900
1878
1833
1793
1758
1764
1775
1767
1750
1725
1734
1743
1744
1731
1717
1731
1746
1761
1797
1856
1934
1968
2068
2351
2879
3679
3643
2787
2099
1614
1372
1382
1529
1651
1700
1713
1712
1696
1677
1665
1682
1702
1707
1691
1685
1705
1727
1727
1723
1719
1743
1762
1760
1748
1741
1766
1785
1791
1789
1782
1808
1831
1840
1839
1829
1854
1876
1879
1881
1889
1920
1939
1953
1942
1948
1975
1991
2000
1985
1979
2001
2011
2009
1984
1964
1961
1942
1908
1871
1838
1831
1819
1791
1757
1743
1749
1750
1743
1716
1712
1724
1723
1714
1705
1708
1724
1728
1722
1698
1706
1722
1728
1730
1712
1709
1729
1741
1731
1717
1716
1738
1744
1742
1719
1717
1738
1744
1738
1714
1717
1738
1751
1747
1728
1726
1742
1751
1746
1725
1729
1749
1770
1779
1778
1810
1850
1872
1885
1897
1922
1936
1921
1897
1877
1887
1904
1885
1842
1790
1761
1763
1759
1744
1724
1727
1737
1738
1727
1709
1711
1731
1743
1735
1721
1787
1902
1986
2013
2079
2352
2862
3629
3699
2843
2134
1651
1382
1360
1501
1666
1744
1744
1719
1690
1697
1712
1717
1710
1701
1713
1729
1738
1732
1725
1744
1769
1774
1776
1763
1775
1797
1805
1797
1791
1813
1840
1847
1840
1842
1866
1887
1894
1895
1898
1919
1937
1951
1953
1955
1989
2016
2019
2014
2007
2033
2057
2060
2039
2027
2032
2026
2000
1959
1919
1911
1900
1872
1839
1811
1812
1808
1797
1776
1760
1772
1775
1773
1758
1746
1763
1776
1775
1760
1757
1779
1791
1788
1780
1776
1793
1807
1805
1790
1791
1808
1815
1813
1801
1794
1810
1822
1819
1797
1792
1814
1827
1821
1808
1797
1818
1827
1825
1807
1801
1820
1836
1840
1836
1847
1886
1910
1927
1929
1948
1994
2014
2000
1955
1936
1954
1968
1955
1917
1870
1843
1826
1808
1778
1766
1776
1775
1762
1744
1743
1759
1760
1757
1739
1744
1779
1862
1969
2041
2093
2221
2537
3097
3846
3637
2754
2007
1488
1281
1371
1587
1723
1746
1718
1698
1703
1710
1703
1683
1697
1719
1725
1721
1708
1715
1743
1754
1754
1738
1749
1774
1781
1779
1773
1785
1808
1819
1817
1808
1827
1855
1869
1866
1861
1884
1914
1932
1931
1924
1949
1981
2000
2000
1995
2011
2038
2054
2041
2027
2032
2038
2021
1989
1943
1923
1914
1889
1851
1808
1802
1805
1783
1761
1729
1730
1740
1737
1727
1709
1725
1742
1741
1730
1717
1729
1745
1749
1730
1713
1732
1754
1761
1745
1730
1744
1756
1755
1742
1726
1744
1761
1760
1745
1732
1751
1769
1772
1759
1744
1757
1770
1776
1771
1758
1776
1791
1791
1774
1761
1776
1791
1791
1775
1759
1776
1799
1799
1781
1773
1797
1811
1809
1791
1780
1798
1815
1818
1811
1825
1872
1915
1936
1931
1920
1954
1989
1993
1948
1908
1911
1935
1935
1903
1870
1857
1841
1825
1795
1778
1789
1791
1789
1759
1750
1771
1787
1781
1765
1763
1794
1873
1981
2059
2107
2213
2507
3034
3839
3877
3009
2188
1574
1302
1384
1616
1762
1787
1744
1706
1706
1706
1709
1691
1694
1713
1728
1727
1715
1728
1755
1765
1759
1746
1754
1781
1806
1808
1787
1793
1824
1856
1837
1840
1849
1885
1907
1910
1903
1908
1933
1966
1968
1960
1970
2011
2032
2039
2033
2053
2086
2103
2107
2087
2080
2110
2096
2067
2015
2000
1986
1967
1926
1875
1866
1857
1840
1805
1775
1775
1789
1791
1774
1750
1759
1781
1790
1775
1756
1766
1787
1792
1776
1754
1771
1781
1791
1776
1744
1776
1797
1801
1781
1767
1786
1808
1814
1798
1776
1798
1817
1823
1806
1786
1807
1834
1828
1809
1792
1808
1826
1829
1811
1794
1811
1827
1829
1809
1792
1808
1822
1831
1809
1795
1808
1822
1820
1806
1790
1808
1827
1825
1808
1797
1815
1835
1831
1811
1798
1814
1837
1833
1811
1803
1830
1857
1877
1886
1904
1950
1968
1968
1963
1978
1997
1986
1953
1924
1904
1922
1926
1904
1849
1808
1819
1826
1815
1782
1763
1777
1787
1778
1759
1746
1771
1783
1781
1786
1859
1978
2059
2086
2182
2535
3210
4095
3764
2787
2009
1507
1364
1485
1651
1746
1775
1757
1728
1691
1680
1711
1725
1721
1701
1701
1731
1745
1747
1734
1741
1770
1783
1785
1769
1772
1795
1809
1817
1803
1808
1841
1856
1861
1847
1856
1895
1914
1914
1904
1920
1953
1977
1984
1975
1990
2021
2041
2046
2033
2053
2087
2101
2097
2069
2065
2071
2058
2005
1951
1926
1923
1907
1875
1835
1819
1833
1820
1798
1762
1769
1791
1792
1776
1751
1758
1779
1787
1771
1744
1759
1776
1782
1771
1756
1769
1787
1787
1776
1761
1777
1802
1800
1790
1767
1780
1798
1806
1793
1776
1789
1808
1808
1795
1776
1795
1812
1818
1805
1788
1802
1822
1824
1810
1789
1802
1818
1815
1799
1776
1793
1810
1811
1799
1779
1797
1815
1822
1802
1783
1801
1819
1821
1805
1788
1807
1827
1829
1810
1802
1819
1835
1835
1822
1810
1857
1903
1925
1930
1926
1947
1974
2000
1990
1949
1938
1948
1947
1927
1904
1904
1889
1851
1811
1792
1806
1806
1799
1776
1764
1782
1788
1786
1769
1761
1786
1807
1867
1925
1974
2015
2135
2458
3047
3893
3779
2875
2153
1616
1377
1447
1622
1745
1757
1736
1733
1728
1717
1701
1696
1728
1743
1744
1728
1733
1762
1778
1775
1757
1761
1792
1802
1794
1779
1785
1808
1823
1829
1818
1823
1853
1870
1872
1861
1873
1904
1917
1920
1914
1927
1964
1984
1985
1974
1987
2027
2043
2045
2031
2033
2064
2067
2044
2007
1999
1994
1972
1936
1895
1874
1870
1843
1814
1779
1770
1777
1775
1761
1743
1747
1765
1765
1750
1732
1742
1759
1767
1748
1729
1730
1744
1746
1742
1728
1742
1766
1775
1761
1744
1758
1775
1779
1773
1755
1765
1785
1789
1776
1760
1776
1792
1792
1776
1759
1776
1794
1791
1777
1759
1776
1792
1797
1785
1769
1781
1802
1807
1791
1773
1783
1794
1801
1791
1785
1808
1834
1852
1866
1873
1908
1931
1937
1958
1966
1958
1936
1933
1921
1910
1911
1906
1879
1831
1790
1798
1803
1794
1771
1750
1761
1776
1770
1749
1739
1754
1759
1759
1776
1846
1946
1998
2047
2241
2672
3435
3890
3135
2350
1776
1456
1379
1488
1641
1723
1755
1746
1730
1699
1696
1715
1731
1731
1715
1717
1746
1763
1764
1746
1748
1775
1786
1795
1783
1788
1815
1827
1825
1814
1813
1842
1869
1869
1858
1862
1894
1914
1922
1915
1924
1954
1973
1979
1973
1984
2017
2032
2034
2026
2029
2059
2064
2058
2030
2014
2005
1983
1951
1907
1887
1879
1861
1841
1806
1794
1803
1798
1780
1759
1762
1778
1786
1779
1758
1754
1773
1778
1774
1750
1764
1782
1787
1776
1759
1767
1787
1792
1786
1775
1783
1802
1803
1789
1767
1776
1795
1798
1792
1775
1781
1803
1803
1794
1775
1783
1799
1806
1801
1787
1793
1808
1809
1798
1781
1792
1811
1814
1808
1790
1797
1810
1809
1803
1785
1805
1823
1839
1846
1861
1905
1941
1954
1952
1963
1991
1993
1961
1933
1918
1936
1942
1925
1885
1834
1822
1823
1819
1791
1774
1782
1792
1783
1761
1747
1775
1785
1781
1771
1792
1899
2005
2073
2098
2259
2679
3392
4067
3430
2525
1854
1447
1347
1457
1631
1743
1771
1744
1709
1686
1705
1719
1724
1711
1711
1733
1744
1747
1744
1743
1765
1779
1782
1766
1761
1787
1807
1811
1806
1800
1827
1843
1851
1842
1847
1879
1904
1909
1904
1914
1943
1971
1981
1970
1981
2019
2041
2054
2042
2047
2080
2096
2093
2065
2045
2042
2032
1995
1952
1920
1909
1889
1862
1823
1792
1797
1792
1782
1751
1744
1760
1760
1751
1725
1719
1744
1746
1744
1728
1726
1749
1752
1749
1728
1726
1745
1752
1744
1729
1735
1757
1762
1757
1734
1736
1759
1770
1760
1742
1746
1770
1771
1758
1742
1744
1774
1777
1771
1754
1755
1774
1777
1767
1746
1755
1777
1776
1767
1745
1757
1774
1775
1769
1747
1760
1777
1783
1776
1751
1761
1781
1790
1789
1798
1840
1885
1909
1920
1901
1922
1957
1963
1921
1873
1881
1906
1905
1878
1830
1798
1791
1781
1759
1733
1737
1744
1744
1729
1707
1713
1731
1735
1728
1713
1749
1857
1965
2016
2031
2177
2559
3200
3986
3614
2721
1968
1457
1285
1402
1612
1743
1746
1706
1661
1665
1680
1682
1670
1663
1683
1708
1712
1695
1686
1712
1735
1743
1731
1722
1745
1763
1775
1758
1747
1777
1806
1812
1808
1800
1831
1856
1872
1866
1863
1890
1919
1930
1929
1931
1965
1988
2000
1999
2000
2032
2063
2065
2047
2037
2054
2045
2021
1980
1942
1936
1919
1885
1838
1808
1808
1806
1783
1753
1738
1748
1761
1750
1728
1719
1739
1744
1739
1719
1715
1739
1750
1746
1727
1722
1745
1758
1754
1735
1731
1755
1765
1762
1743
1737
1765
1777
1774
1744
1744
1775
1786
1776
1757
1757
1779
1790
1782
1759
1762
1781
1789
1785
1765
1775
1794
1805
1793
1767
1778
1799
1807
1801
1776
1783
1807
1808
1797
1778
1789
1809
1821
1808
1787
1791
1815
1821
1809
1792
1801
1829
1841
1850
1850
1887
1931
1959
1968
1953
1979
2019
2014
1968
1919
1930
1959
1958
1919
1861
1834
1840
1833
1805
1775
1785
1793
1790
1776
1750
1760
1779
1789
1775
1766
1826
1943
2032
2064
2096
2349
2866
3727
4095
3259
2421
1779
1424
1392
1535
1719
1795
1779
1742
1707
1713
1730
1740
1725
1707
1726
1746
1754
1749
1738
1761
1777
1786
1776
1774
1791
1813
1821
1817
1806
1833
1853
1867
1856
1850
1873
1904
1920
1908
1905
1938
1968
1984
1977
1982
2013
2041
2064
2055
2054
2089
2112
2118
2099
2083
2096
2096
2064
2013
1971
1965
1957
1930
1879
1840
1841
1839
1819
1787
1772
1786
1792
1781
1760
1751
1776
1791
1790
1765
1751
1777
1787
1785
1766
1761
1782
1795
1791
1762
1758
1781
1791
1794
1777
1776
1796
1808
1805
1781
1779
1805
1808
1805
1782
1787
1811
1821
1818
1791
1789
1809
1818
1813
1786
1791
1815
1824
1817
1795
1790
1808
1814
1812
1794
1797
1820
1828
1822
1801
1804
1829
1840
1837
1808
1815
1841
1846
1839
1808
1813
1833
1840
1839
1815
1823
1843
1849
1837
1817
1821
1839
1842
1831
1818
1835
1866
1889
1902
1898
1921
1962
1983
2000
1999
2000
1989
1971
1961
1939
1941
1936
1903
1853
1814
1811
1817
1810
1802
1776
1783
1792
1789
1775
1760
1774
1791
1806
1846
1906
1983
2021
2128
2425
2996
3908
3871
2950
2181
1616
1377
1436
1616
1730
1744
1745
1737
1719
1699
1683
1707
1724
1725
1714
1711
1728
1749
1759
1742
1731
1757
1776
1781
1775
1762
1781
1801
1807
1798
1796
1823
1849
1856
1847
1847
1872
1895
1905
1895
1898
1929
1957
1968
1959
1962
1995
2030
2034
2023
2017
2047
2065
2067
2037
2021
2019
2003
1978
1933
1895
1887
1872
1845
1808
1782
1795
1789
1776
1750
1741
1755
1759
1758
1741
1735
1755
1760
1761
1741
1743
1760
1772
1763
1739
1739
1766
1777
1776
1759
1754
1776
1782
1775
1750
1753
1779
1795
1791
1765
1760
1779
1792
1789
1771
1771
1791
1804
1798
1777
1782
1801
1808
1799
1788
1792
1810
1817
1809
1791
1793
1814
1829
1823
1803
1803
1819
1822
1817
1797
1806
1823
1833
1821
1801
1806
1826
1831
1826
1812
1825
1856
1877
1895
1903
1929
1955
1965
1975
1982
1978
1964
1945
1933
1919
1926
1931
1906
1857
1808
1806
1808
1802
1780
1759
1775
1786
1786
1774
1751
1762
1776
1785
1803
1865
1955
2017
2064
2251
2670
3418
4016
3314
2480
1840
1472
1395
1520
1677
1750
1774
1759
1739
1718
1700
1726
1747
1750
1744
1735
1757
1778
1779
1772
1763
1785
1801
1805
1793
1789
1808
1828
1837
1827
1824
1849
1868
1879
1871
1863
1889
1915
1925
1920
1917
1945
1974
1989
1983
1983
2008
2037
2045
2036
2037
2069
2085
2079
2047
2031
2031
2015
1985
1938
1904
1894
1879
1857
1819
1792
1794
1797
1797
1774
1765
1777
1782
1775
1750
1746
1769
1773
1774
1749
1744
1764
1774
1771
1747
1742
1765
1776
1774
1746
1744
1770
1781
1776
1755
1759
1779
1793
1787
1763
1763
1787
1801
1795
1777
1776
1795
1799
1791
1771
1773
1791
1801
1795
1776
1777
1795
1802
1798
1777
1783
1808
1813
1808
1789
1791
1808
1813
1810
1793
1797
1823
1833
1840
1840
1873
1920
1947
1953
1936
1963
2000
1997
1962
1913
1906
1931
1935
1913
1872
1840
1829
1815
1797
1767
1767
1783
1781
1771
1744
1751
1774
1776
1771
1749
1789
1893
1996
2058
2068
2219
2612
3276
4060
3617
2704
1970
1486
1333
1434
1637
1763
1779
1744
1698
1696
1712
1715
1712
1697
1718
1743
1751
1744
1732
1746
1766
1774
1767
1754
1783
1809
1815
1804
1795
1821
1843
1850
1839
1831
1857
1884
1895
1891
1883
1916
1942
1959
1959
1959
1995
2022
2037
2030
2023
2059
2079
2084
2071
2055
2067
2067
2044
1997
1954
1941
1927
1899
1856
1817
1811
1810
1795
1758
1739
1754
1771
1762
1734
1721
1744
1758
1756
1739
1728
1749
1763
1758
1739
1725
1744
1764
1762
1743
1735
1759
1772
1767
1743
1733
1762
1776
1770
1753
1744
1770
1776
1773
1749
1744
1774
1787
1789
1763
1757
1779
1789
1785
1764
1755
1776
1783
1778
1759
1753
1776
1791
1781
1758
1753
1777
1793
1790
1767
1769
1791
1803
1798
1774
1771
1791
1797
1793
1776
1788
1825
1853
1879
1889
1911
1952
1962
1959
1958
1971
1973
1948
1925
1904
1904
1919
1899
1854
1792
1778
1793
1790
1775
1744
1744
1763
1775
1762
1741
1745
1772
1776
1776
1812
1914
2007
2043
2112
2371
2930
3840
3989
3066
2231
1625
1361
1407
1584
1699
1744
1747
1726
1695
1669
1685
1712
1712
1710
1690
1711
1738
1745
1741
1727
1745
1775
1785
1782
1773
1791
1813
1820
1811
1801
1826
1857
1867
1859
1853
1873
1906
1920
1916
1911
1946
1978
1993
1991
1979
2013
2046
2063
2047
2039
2069
2097
2103
2086
2060
2054
2041
2018
1973
1925
1912
1903
1873
1838
1801
1802
1802
1791
1760
1734
1751
1765
1760
1741
1722
1743
1760
1761
1741
1728
1749
1759
1759
1744
1735
1757
1772
1771
1747
1743
1763
1776
1778
1758
1746
1771
1780
1779
1758
1747
1776
1791
1792
1774
1770
1790
1797
1794
1770
1767
1791
1802
1799
1778
1776
1797
1808
1807
1786
1776
1803
1810
1808
1791
1786
1808
1817
1808
1787
1787
1809
1819
1815
1793
1791
1814
1831
1833
1808
1807
1826
1837
1833
1807
1808
1840
1856
1866
1861
1890
1937
1962
1968
1946
1969
2014
2011
1971
1934
1935
1957
1955
1927
1867
1830
1829
1825
1808
1776
1776
1789
1789
1774
1746
1749
1771
1776
1771
1755
1813
1915
1987
2000
2033
2289
2821
3687
4029
3155
2363
1763
1424
1394
1526
1694
1774
1765
1727
1690
1697
1719
1725
1712
1700
1712
1739
1747
1744
1729
1746
1773
1781
1776
1762
1782
1808
1814
1810
1796
1810
1838
1847
1842
1833
1854
1877
1891
1883
1873
1899
1924
1940
1939
1936
1963
1990
2000
1998
1995
2020
2035
2043
2030
2018
2032
2032
2012
1971
1932
1920
1915
1882
1840
1795
1793
1790
1776
1746
1726
1733
1742
1742
1719
1711
1723
1735
1733
1717
1709
1723
1738
1730
1712
1705
1727
1728
1726
1710
1701
1721
1739
1736
1716
1711
1731
1744
1739
1725
1717
1741
1748
1744
1726
1716
1744
1755
1747
1734
1728
1750
1761
1751
1737
1730
1749
1757
1749
1738
1730
1758
1769
1761
1740
1735
1751
1763
1759
1735
1734
1755
1765
1758
1739
1741
1761
1771
1761
1746
1745
1769
1778
1780
1773
1786
1823
1858
1879
1878
1895
1920
1951
1968
1939
1918
1921
1927
1919
1894
1887
1885
1855
1824
1793
1791
1798
1799
1792
1766
1766
1783
1787
1778
1767
1777
1798
1837
1904
1959
2000
2073
2299
2752
3519
3999
3239
2445
1849
1473
1407
1535
1712
1786
1772
1755
1751
1740
1722
1712
1731
1753
1759
1757
1744
1757
1781
1787
1779
1771
1788
1808
1821
1817
1806
1825
1843
1855
1849
1837
1857
1877
1890
1889
1874
1898
1921
1936
1937
1935
1963
1990
2002
2004
1995
2022
2055
2066
2064
2055
2073
2094
2087
2063
2023
2013
2000
1979
1936
1900
1888
1875
1857
1827
1802
1808
1810
1805
1778
1761
1776
1787
1785
1761
1754
1766
1781
1777
1764
1751
1775
1787
1787
1771
1762
1780
1793
1791
1775
1761
1787
1803
1798
1778
1770
1787
1802
1798
1776
1774
1790
1792
1792
1776
1771
1790
1799
1794
1776
1766
1785
1796
1791
1775
1775
1793
1802
1793
1771
1772
1795
1807
1803
1785
1783
1803
1810
1808
1795
1809
1856
1895
1916
1911
1917
1949
1985
1987
1943
1918
1924
1929
1918
1885
1861
1850
1823
1798
1770
1765
1776
1784
1773
1751
1746
1758
1757
1754
1742
1743
1771
1822
1913
1982
2032
2112
2352
2823
3583
3951
3159
2342
1712
1346
1337
1518
1685
1744
1714
1702
1700
1691
1682
1667
1680
1703
1712
1708
1687
1712
1737
1744
1744
1728
1744
1772
1782
1777
1765
1782
1808
1818
1820
1808
1827
1851
1869
1870
1859
1885
1915
1936
1936
1933
1961
1997
2014
2013
2006
2029
2061
2069
2064
2045
2066
2080
2074
2034
1993
1978
1969
1939
1899
1853
1841
1835
1815
1787
1759
1764
1771
1769
1745
1723
1735
1750
1749
1738
1722
1743
1751
1750
1735
1715
1734
1753
1749
1739
1726
1744
1759
1751
1741
1727
1744
1759
1758
1740
1728
1751
1765
1763
1747
1739
1755
1771
1769
1746
1739
1759
1771
1773
1750
1742
1770
1777
1781
1757
1751
1773
1783
1778
1763
1756
1781
1795
1796
1777
1770
1793
1817
1828
1835
1863
1911
1940
1947
1933
1951
1984
1970
1937
1902
1888
1911
1919
1893
1840
1801
1801
1799
1788
1753
1744
1767
1776
1763
1741
1738
1760
1770
1761
1739
1776
1891
1991
2034
2047
2224
2671
3406
4069
3411
2538
1859
1433
1338
1457
1633
1734
1743
1707
1663
1659
1683
1695
1688
1665
1675
1703
1719
1717
1703
1712
1743
1761
1755
1735
1751
1775
1789
1787
1770
1783
1808
1826
1828
1810
1827
1859
1878
1880
1869
1887
1921
1939
1943
1938
1961
1991
2011
2016
2007
2027
2058
2068
2063
2033
2031
2032
2017
1974
1918
1904
1894
1872
1835
1795
1793
1803
1790
1761
1729
1741
1750
1757
1742
1726
1739
1758
1758
1744
1723
1738
1749
1751
1743
1725
1744
1760
1763
1749
1733
1745
1770
1776
1762
1754
1769
1787
1789
1770
1753
1776
1794
1797
1777
1758
1779
1804
1807
1786
1771
1789
1805
1809
1791
1779
1799
1811
1811
1797
1780
1803
1809
1811
1792
1779
1804
1821
1823
1798
1787
1808
1827
1827
1806
1798
1823
1836
1836
1812
1797
1823
1841
1847
1840
1861
1915
1952
1968
1950
1945
1991
2019
2001
1949
1922
1941
1956
1946
1904
1861
1843
1840
1823
1790
1776
1793
1805
1799
1774
1771
1792
1808
1801
1776
1774
1836
1936
2011
2032
2073
2295
2770
3566
4081
3351
2512
1843
1443
1369
1526
1714
1796
1786
1740
1722
1733
1744
1740
1715
1725
1755
1771
1766
1751
1762
1790
1802
1803
1789
1799
1826
1840
1840
1826
1842
1869
1878
1873
1867
1883
1915
1931
1929
1915
1933
1967
1982
1989
1983
2003
2043
2064
2065
2055
2076
2106
2114
2113
2096
2102
2115
2105
2067
2015
2000
1991
1968
1924
1872
1857
1855
1840
1818
1783
1783
1795
1791
1776
1753
1762
1781
1783
1767
1755
1776
1793
1792
1774
1749
1762
1779
1781
1771
1748
1770
1788
1786
1770
1749
1771
1782
1782
1772
1750
1776
1790
1791
1776
1758
1776
1795
1801
1779
1763
1779
1801
1802
1787
1772
1781
1799
1798
1777
1765
1788
1803
1805
1781
1767
1792
1807
1806
1791
1776
1792
1806
1802
1787
1781
1799
1807
1808
1794
1791
1815
1837
1845
1854
1872
1915
1936
1934
1930
1950
1978
1969
1940
1907
1904
1920
1919
1899
1841
1799
1803
1803
1791
1761
1745
1763
1771
1759
1739
1734
1757
1772
1766
1750
1801
1900
1975
1999
2061
2325
2887
3770
3874
2957
2221
1702
1421
1407
1535
1691
1771
1766
1735
1694
1695
1714
1727
1723
1709
1712
1734
1749
1746
1737
1746
1772
1789
1789
1776
1784
1808
1824
1830
1818
1829
1855
1867
1870
1858
1873
1904
1918
1921
1909
1923
1957
1975
1979
1973
1991
2030
2047
2046
2038
2064
2090
2097
2096
2071
2064
2064
2039
2003
1963
1950
1947
1926
1895
1847
1837
1835
1819
1807
1777
1776
1789
1788
1775
1754
1763
1780
1782
1766
1749
1760
1776
1781
1771
1750
1765
1778
1782
1766
1746
1762
1779
1779
1773
1755
1775
1783
1781
1771
1761
1777
1793
1794
1776
1761
1777
1790
1791
1776
1765
1776
1793
1794
1778
1766
1783
1798
1802
1786
1773
1792
1808
1803
1792
1779
1795
1806
1803
1787
1776
1803
1823
1834
1840
1856
1905
1936
1943
1935
1950
1982
1978
1951
1919
1904
1923
1930
1913
1863
1810
1808
1808
1799
1776
1759
1770
1775
1767
1745
1743
1759
1767
1769
1750
1773
1885
1982
2032
2045
2213
2624
3344
4018
3389
2530
1897
1487
1360
1454
1622
1744
1767
1744
1708
1690
1712
1717
1718
1708
1712
1732
1744
1746
1729
1737
1767
1777
1780
1773
1776
1802
1812
1811
1805
1809
1840
1850
1854
1842
1851
1880
1899
1904
1895
1909
1939
1964
1968
1965
1979
2011
2032
2032
2020
2037
2071
2089
2077
2054
2045
2046
2032
1999
1947
1925
1918
1899
1858
1814
1805
1808
1801
1778
1756
1750
1766
1772
1760
1743
1753
1776
1777
1767
1744
1744
1776
1777
1772
1750
1762
1779
1786
1775
1755
1770
1786
1791
1776
1761
1775
1795
1795
1783
1758
1775
1792
1790
1779
1767
1778
1793
1796
1783
1773
1785
1805
1806
1786
1769
1787
1801
1803
1787
1774
1791
1807
1806
1791
1778
1792
1810
1815
1802
1782
1795
1815
1818
1807
1792
1815
1840
1862
1874
1893
1930
1955
1951
1949
1953
1967
1958
1935
1906
1901
1915
1917
1888
1829
1787
1793
1804
1791
1761
1744
1755
1773
1770
1729
1731
1751
1762
1771
1770
1841
1983
2053
2096
2203
2541
3189
4051
3728
2778
1988
1498
1339
1454
1625
1730
1758
1753
1705
1682
1657
1696
1712
1715
1690
1696
1722
1743
1744
1733
1732
1755
1775
1785
1758
1751
1775
1803
1805
1790
1795
1821
1840
1853
1835
1840
1874
1905
1910
1897
1907
1947
1968
1979
1975
1991
2029
2055
2064
2047
2060
2094
2101
2096
2064
2047
2046
2027
1986
1937
1909
1903
1879
1847
1807
1791
1802
1794
1776
1743
1742
1759
1763
1750
1729
1743
1763
1771
1759
1729
1729
1747
1757
1745
1734
1739
1762
1765
1751
1731
1744
1770
1776
1764
1743
1755
1781
1787
1777
1757
1772
1783
1790
1779
1759
1771
1790
1791
1777
1757
1774
1791
1795
1782
1762
1776
1790
1791
1776
1753
1773
1790
1793
1781
1765
1778
1791
1795
1781
1762
1781
1807
1808
1792
1773
1788
1807
1808
1795
1778
1793
1810
1815
1798
1782
1802
1819
1829
1811
1801
1813
1827
1824
1809
1799
1823
1845
1862
1872
1885
1931
1963
1968
1955
1968
2001
1993
1965
1929
1908
1925
1936
1919
1869
1818
1818
1825
1814
1782
1765
1779
1792
1789
1762
1750
1773
1782
1785
1775
1834
1949
2032
2064
2118
2403
2993
3936
4061
3105
2252
1645
1374
1429
1599
1721
1776
1762
1730
1690
1675
1702
1718
1722
1705
1712
1731
1744
1750
1737
1737
1763
1776
1778
1771
1776
1807
1818
1822
1807
1808
1842
1862
1867
1854
1859
1894
1910
1920
1907
1913
1953
1974
1984
1981
2000
2033
2062
2064
2055
2064
2097
2115
2116
2096
2081
2088
2068
2032
1982
1949
1943
1923
1890
1840
1823
1827
1818
1796
1765
1760
1776
1777
1769
1741
1744
1763
1776
1764
1740
1743
1765
1771
1766
1747
1751
1771
1776
1766
1745
1756
1778
1787
1776
1754
1767
1792
1794
1787
1774
1782
1807
1809
1796
1778
1791
1808
1813
1807
1790
1797
1812
1811
1798
1783
1794
1810
1819
1805
1783
1806
1823
1822
1808
1790
1801
1815
1819
1806
1782
1797
1815
1819
1804
1786
1808
1825
1826
1809
1793
1807
1818
1822
1808
1791
1811
1829
1822
1809
1796
1815
1833
1829
1812
1797
1818
1833
1837
1820
1806
1825
1837
1841
1827
1811
1828
1840
1841
1826
1813
1835
1842
1837
1818
1803
1819
1834
1831
1811
1808
1840
1872
1887
1893
1904
1935
1955
1975
1983
1978
1970
1956
1939
1921
1906
1911
1904
1870
1814
1790
1798
1805
1791
1770
1754
1774
1776
1770
1749
1742
1766
1782
1820
1877
1941
1987
2047
2290
2779
3583
3987
3177
2355
1709
1370
1383
1555
1701
1729
1717
1712
1699
1691
1670
1675
1703
1713
1713
1702
1703
1733
1745
1742
1730
1738
1764
1779
1776
1758
1766
1799
1808
1808
1795
1808
1836
1847
1850
1836
1850
1886
1903
1906
1904
1929
1966
1981
1988
1974
1995
2028
2047
2053
2038
2054
2083
2096
2091
2062
2039
2032
2014
1979
1931
1909
1904
1885
1851
1809
1805
1807
1797
1776
1751
1757
1777
1778
1771
1754
1770
1792
1792
1779
1758
1769
1791
1793
1775
1750
1765
1786
1791
1776
1758
1771
1791
1794
1781
1767
1779
1798
1802
1781
1767
1783
1802
1808
1793
1777
1797
1809
1813
1797
1777
1797
1808
1811
1803
1782
1795
1809
1814
1798
1777
1794
1808
1810
1803
1786
1803
1822
1820
1807
1790
1809
1828
1827
1809
1802
1821
1840
1838
1821
1808
1825
1840
1840
1823
1808
1829
1843
1840
1818
1808
1835
1846
1847
1825
1818
1833
1847
1842
1823
1817
1840
1847
1841
1820
1809
1839
1851
1851
1838
1825
1843
1857
1849
1829
1824
1851
1871
1879
1884
1899
1936
1962
1969
1968
1983
2003
1991
1965
1931
1924
1937
1936
1914
1850
1811
1818
1819
1799
1767
1754
1770
1774
1763
1734
1729
1746
1753
1759
1793
1872
1968
2000
2069
2327
2880
3776
4006
3105
2256
1626
1347
1394
1573
1687
1735
1742
1719
1691
1659
1663
1687
1702
1693
1677
1687
1723
1733
1727
1711
1718
1744
1760
1757
1738
1744
1776
1783
1779
1761
1775
1802
1813
1811
1799
1818
1847
1868
1869
1856
1872
1907
1931
1932
1923
1950
1983
1999
1998
1985
2005
2031
2039
2032
2009
2019
2022
1998
1961
1909
1898
1883
1858
1825
1783
1774
1774
1762
1741
1707
1713
1730
1729
1712
1695
1712
1729
1729
1715
1697
1712
1730
1737
1717
1699
1713
1739
1745
1727
1712
1725
1745
1749
1740
1728
1744
1761
1766
1745
1730
1751
1771
1774
1754
1743
1760
1776
1777
1764
1744
1767
1782
1782
1763
1750
1775
1787
1788
1771
1755
1776
1791
1795
1776
1759
1790
1807
1799
1786
1775
1793
1809
1809
1788
1778
1808
1822
1818
1793
1786
1808
1821
1819
1796
1786
1808
1817
1820
1802
1797
1815
1836
1831
1808
1806
1836
1841
1841
1819
1809
1832
1846
1845
1826
1821
1843
1856
1853
1834
1835
1857
1872
1870
1845
1842
1872
1895
1906
1904
1926
1968
1994
1995
1987
2014
2045
2031
1998
1963
1959
1979
1981
1961
1899
1861
1871
1870
1855
1825
1813
1834
1833
1829
1803
1806
1833
1839
1835
1855
1936
2032
2065
2109
2336
2862
3789
4095
3283
2407
1770
1443
1442
1603
1734
1794
1807
1783
1756
1727
1732
1757
1767
1759
1744
1754
1778
1792
1791
1773
1786
1810
1819
1818
1805
1815
1840
1868
1841
1835
1853
1877
1887
1887
1874
1891
1917
1935
1931
1923
1951
1978
1990
1993
1987
2011
2043
2062
2055
2037
2067
2099
2112
2096
2074
2085
2085
2061
2015
1968
1948
1936
1907
1866
1831
1826
1828
1809
1783
1755
1759
1769
1769
1755
1742
1759
1771
1766
1752
1734
1755
1768
1766
1750
1735
1751
1775
1773
1755
1742
1758
1776
1776
1754
1734
1755
1775
1776
1769
1742
1761
1773
1776
1761
1751
1774
1783
1775
1755
1741
1769
1781
1773
1749
1743
1761
1778
1778
1761
1749
1771
1781
1778
1759
1745
1774
1785
1786
1773
1762
1782
1795
1792
1776
1772
1785
1795
1791
1770
1767
1787
1795
1788
1774
1773
1794
1809
1798
1781
1773
1797
1808
1807
1787
1787
1808
1814
1812
1791
1794
1815
1836
1847
1857
1878
1920
1943
1920
1940
1963
1993
1975
1927
1904
1914
1920
1911
1883
1834
1797
1821
1816
1787
1776
1771
1787
1788
1785
1758
1767
1788
1790
1788
1817
1904
1968
2012
2101
2393
2991
3909
3888
2942
2165
1648
1411
1454
1600
1708
1757
1773
1743
1715
1691
1714
1731
1730
1727
1715
1728
1755
1760
1770
1744
1762
1780
1791
1786
1783
1802
1836
1835
1822
1810
1835
1859
1872
1871
1863
1879
1911
1922
1920
1914
1939
1968
1984
1984
1979
2000
2032
2047
2045
2039
2069
2091
2093
2075
2057
2063
2058
2029
1990
1947
1933
1922
1903
1865
1820
1823
1814
1806
1779
1754
1763
1770
1771
1751
1734
1746
1766
1767
1747
1735
1751
1767
1763
1742
1730
1745
1766
1767
1753
1739
1762
1776
1775
1762
1745
1766
1776
1781
1769
1760
1777
1797
1795
1775
1757
1776
1789
1790
1770
1761
1778
1787
1786
1773
1766
1789
1801
1796
1776
1772
1790
1805
1803
1783
1776
1799
1808
1808
1782
1781
1806
1808
1803
1783
1786
1807
1814
1809
1791
1781
1801
1808
1806
1789
1793
1831
1861
1882
1889
1907
1939
1954
1977
1969
1953
1939
1931
1921
1900
1893
1903
1889
1845
1805
1788
1799
1792
1782
1751
1747
1769
1774
1769
1744
1746
1773
1789
1843
1912
1990
2041
2132
2415
2949
3825
3957
3043
2231
1616
1344
1405
1593
1712
1740
1733
1725
1716
1703
1681
1690
1711
1722
1715
1698
1714
1740
1744
1739
1729
1741
1763
1776
1772
1751
1769
1793
1807
1806
1793
1809
1838
1847
1851
1840
1861
1891
1907
1905
1902
1930
1968
1986
1986
1981
2008
2038
2063
2064
2058
2075
2095
2096
2078
2041
2032
2019
1991
1947
1903
1887
1874
1850
1811
1771
1777
1781
1776
1755
1729
1744
1753
1754
1739
1725
1743
1761
1765
1746
1730
1752
1769
1763
1744
1731
1749
1761
1766
1746
1735
1759
1776
1776
1755
1744
1766
1781
1786
1769
1755
1776
1790
1791
1776
1759
1783
1796
1797
1778
1767
1782
1797
1795
1776
1763
1781
1795
1792
1776
1768
1792
1808
1808
1787
1777
1799
1810
1811
1792
1780
1805
1819
1814
1793
1788
1808
1821
1817
1795
1791
1808
1821
1811
1791
1785
1808
1818
1815
1792
1789
1825
1841
1856
1867
1889
1936
1954
1952
1941
1966
1986
1969
1937
1906
1901
1922
1918
1897
1841
1811
1817
1815
1799
1766
1761
1780
1783
1777
1752
1749
1776
1781
1777
1797
1882
1985
2031
2064
2242
2704
3520
4095
3473
2545
1845
1442
1381
1524
1677
1756
1772
1744
1710
1682
1689
1718
1726
1718
1700
1712
1744
1758
1755
1738
1754
1777
1788
1783
1767
1790
1810
1826
1825
1809
1826
1847
1859
1859
1845
1871
1902
1915
1915
1904
1927
1961
1975
1976
1973
2000
2038
2061
2054
2037
2070
2096
2111
2102
2081
2081
2082
2055
2007
1962
1946
1936
1909
1863
1820
1808
1808
1802
1776
1749
1759
1767
1769
1747
1729
1744
1759
1763
1746
1728
1743
1759
1762
1744
1733
1750
1767
1766
1746
1737
1762
1778
1783
1765
1745
1763
1781
1782
1766
1755
1776
1788
1795
1777
1770
1794
1813
1809
1790
1775
1792
1806
1805
1786
1776
1794
1808
1807
1786
1773
1798
1814
1811
1791
1778
1807
1817
1811
1791
1782
1808
1818
1819
1797
1791
1811
1819
1818
1799
1792
1813
1824
1825
1808
1803
1820
1837
1830
1810
1807
1823
1835
1839
1817
1815
1831
1840
1840
1821
1811
1837
1843
1850
1840
1856
1901
1932
1941
1936
1949
1989
2023
2012
1963
1936
1951
1966
1953
1922
1901
1888
1871
1843
1812
1806
1820
1821
1808
1786
1780
1801
1806
1799
1778
1789
1856
1936
1990
1989
2064
2355
2911
3822
4017
3127
2352
1762
1435
1401
1566
1727
1791
1771
1727
1712
1723
1724
1718
1708
1715
1743
1747
1744
1727
1742
1774
1781
1776
1761
1777
1801
1808
1804
1791
1808
1837
1842
1840
1829
1843
1872
1885
1881
1872
1891
1921
1931
1937
1935
1954
1989
1999
1997
1990
2011
2039
2057
2059
2039
2053
2064
2065
2041
2000
1984
1968
1941
1899
1851
1839
1834
1815
1775
1745
1746
1761
1760
1741
1717
1730
1745
1744
1736
1719
1738
1751
1751
1741
1726
1744
1757
1749
1738
1727
1751
1756
1756
1739
1728
1749
1763
1765
1746
1741
1755
1775
1771
1755
1744
1763
1776
1780
1762
1755
1774
1786
1776
1764
1760
1783
1794
1792
1775
1763
1787
1799
1792
1771
1769
1792
1799
1802
1791
1777
1802
1806
1803
1781
1776
1794
1807
1808
1790
1785
1805
1811
1808
1791
1789
1815
1833
1842
1850
1868
1909
1936
1936
1934
1963
1988
1968
1936
1909
1907
1921
1911
1892
1847
1810
1808
1802
1789
1767
1760
1775
1776
1765
1744
1744
1768
1774
1766
1763
1831
1935
1995
2019
2155
2515
3198
3999
3578
2667
1994
1577
1397
1456
1603
1721
1771
1761
1735
1702
1698
1719
1723
1719
1701
1712
1735
1745
1744
1731
1744
1773
1779
1781
1775
1789
1812
1825
1825
1810
1825
1849
1856
1851
1845
1861
1885
1899
1902
1901
1922
1951
1970
1974
1971
1995
2023
2039
2042
2030
2046
2071
2082
2073
2057
2062
2064
2042
2002
1957
1939
1929
1907
1871
1835
1833
1827
1811
1789
1767
1776
1779
1778
1771
1754
1774
1778
1782
1767
1749
1761
1777
1783
1772
1755
1774
1786
1786
1772
1762
1781
1794
1790
1776
1769
1789
1806
1798
1777
1762
1786
1799
1805
1791
1781
1805
1822
1817
1807
1793
1808
1822
1819
1799
1786
1807
1817
1814
1797
1789
1809
1818
1814
1802
1797
1810
1819
1813
1808
1808
1834
1870
1897
1907
1923
1952
1967
1987
1990
1967
1953
1945
1939
1925
1905
1917
1906
1872
1824
1794
1807
1808
1793
1770
1763
1781
1789
1785
1766
1761
1785
1798
1828
1904
1999
2082
2133
2309
2704
3411
4095
3494
2559
1847
1422
1360
1509
1689
1759
1765
1759
1736
1718
1702
1703
1731
1739
1741
1723
1728
1748
1764
1758
1744
1747
1781
1793
1793
1782
1790
1815
1827
1825
1811
1819
1851
1868
1873
1863
1873
1907
1929
1936
1936
1952
1985
2003
2006
1994
2015
2046
2066
2069
2055
2069
2092
2096
2082
2039
2023
2007
1987
1951
1909
1877
1858
1842
1810
1775
1785
1767
1776
1765
1739
1731
1743
1761
1749
1728
1713
1767
1759
1758
1729
1742
1764
1760
1744
1725
1739
1753
1754
1744
1728
1741
1755
1751
1750
1731
1743
1769
1775
1758
1743
1753
1779
1788
1773
1753
1766
1787
1793
1769
1763
1773
1782
1792
1783
1762
1778
1797
1805
1787
1775
1791
1808
1806
1793
1779
1799
1809
1810
1795
1777
1792
1808
1808
1798
1781
1802
1813
1820
1806
1799
1821
1858
1891
1904
1919
1950
1968
1975
1975
1968
1963
1939
1935
1914
1903
1915
1916
1882
1834
1806
1811
1814
1803
1778
1762
1778
1790
1782
1765
1756
1777
1793
1808
1869
1961
2061
2097
2201
2524
3139
4079
3921
2935
2123
1535
1362
1471
1657
1750
1766
1761
1741
1718
1691
1682
1712
1725
1726
1712
1712
1738
1755
1756
1742
1746
1776
1788
1791
1774
1776
1801
1818
1822
1807
1815
1845
1865
1867
1851
1857
1889
1910
1921
1919
1936
1971
1999
2002
1993
2002
2039
2064
2070
2064
2070
2095
2109
2101
2069
2059
2056
2029
1993
1936
1906
1903
1880
1856
1811
1798
1808
1799
1782
1753
1749
1772
1775
1769
1743
1744
1764
1775
1771
1749
1758
1780
1785
1773
1744
1751
1771
1776
1770
1749
1758
1776
1783
1776
1761
1773
1791
1789
1776
1755
1771
1792
1795
1779
1752
1767
1785
1791
1781
1769
1778
1796
1792
1781
1761
1775
1791
1794
1779
1757
1774
1785
1783
1776
1761
1776
1795
1801
1785
1763
1777
1797
1802
1786
1774
1786
1804
1801
1782
1770
1790
1807
1807
1793
1776
1799
1820
1820
1807
1787
1802
1815
1819
1801
1786
1808
1838
1843
1843
1856
1903
1936
1947
1933
1930
1974
1993
1969
1933
1910
1926
1935
1919
1879
1839
1826
1826
1810
1779
1760
1776
1785
1776
1751
1744
1759
1776
1775
1757
1776
1874
1968
2009
2013
2165
2608
3351
4095
3568
2651
1955
1491
1360
1460
1635
1747
1767
1744
1695
1674
1690
1705
1705
1690
1684
1715
1734
1734
1724
1718
1746
1762
1761
1744
1746
1776
1792
1793
1780
1776
1804
1808
1808
1798
1808
1841
1867
1870
1858
1867
1904
1922
1932
1931
1947
1979
1993
2000
1990
2002
2034
2062
2061
2036
2037
2059
2047
2021
1971
1945
1936
1914
1883
1834
1811
1808
1794
1774
1739
1731
1750
1753
1743
1713
1722
1743
1748
1739
1721
1726
1744
1747
1737
1722
1729
1747
1750
1739
1718
1730
1754
1761
1746
1729
1738
1754
1761
1755
1742
1746
1771
1776
1767
1745
1755
1776
1778
1771
1750
1760
1779
1783
1773
1747
1761
1778
1780
1771
1754
1765
1776
1777
1769
1753
1767
1783
1782
1774
1761
1778
1793
1793
1782
1764
1779
1798
1799
1782
1774
1790
1808
1805
1793
1776
1793
1808
1809
1792
1787
1807
1825
1826
1809
1797
1821
1846
1853
1847
1853
1891
1932
1943
1936
1931
1978
2015
1999
1950
1919
1936
1947
1937
1905
1873
1858
1847
1833
1808
1783
1792
1795
1791
1771
1765
1781
1791
1783
1768
1767
1840
1933
1998
2005
2086
2387
2956
3843
3907
2989
2258
1728
1438
1421
1572
1732
1790
1776
1730
1711
1718
1728
1729
1713
1712
1738
1749
1751
1742
1741
1766
1779
1778
1769
1772
1789
1802
1801
1793
1800
1824
1839
1831
1818
1827
1862
1876
1883
1878
1885
1917
1935
1943
1939
1954
1989
2007
2017
2011
2017
2046
2064
2064
2055
2064
2077
2068
2042
2000
1973
1968
1946
1913
1870
1849
1842
1829
1808
1772
1765
1776
1776
1760
1737
1739
1754
1760
1750
1735
1742
1757
1765
1757
1743
1746
1767
1772
1763
1747
1759
1776
1778
1775
1748
1759
1776
1779
1775
1751
1766
1782
1779
1776
1761
1769
1791
1795
1791
1775
1787
1803
1808
1799
1781
1787
1798
1805
1793
1777
1789
1808
1810
1807
1790
1806
1823
1823
1808
1793
1806
1825
1826
1810
1791
1808
1822
1829
1822
1807
1825
1840
1853
1862
1873
1915
1949
1963
1949
1942
1984
2010
1983
1946
1929
1943
1955
1946
1914
1874
1861
1856
1842
1808
1791
1798
1812
1807
1792
1778
1793
1808
1807
1789
1793
1877
1984
2064
2079
2170
2497
3099
3975
3836
2874
2139
1625
1391
1423
1589
1744
1797
1781
1743
1713
1728
1743
1743
1728
1724
1745
1763
1766
1746
1748
1776
1791
1799
1789
1787
1812
1830
1834
1822
1821
1853
1871
1872
1858
1863
1893
1916
1921
1913
1917
1946
1967
1977
1968
1984
2016
2041
2053
2035
2054
2071
2093
2096
2077
2069
2083
2073
2043
1999
1968
1958
1936
1906
1867
1843
1843
1837
1817
1790
1778
1789
1790
1776
1758
1754
1776
1778
1777
1759
1755
1776
1781
1779
1763
1759
1789
1793
1786
1774
1774
1792
1803
1799
1776
1780
1803
1809
1806
1782
1783
1802
1808
1806
1785
1793
1813
1818
1807
1787
1794
1808
1817
1808
1791
1803
1822
1826
1811
1790
1781
1820
1829
1816
1794
1800
1827
1836
1827
1808
1815
1836
1841
1829
1808
1819
1839
1842
1829
1811
1821
1840
1846
1836
1812
1826
1843
1853
1840
1815
1827
1842
1850
1840
1826
1836
1851
1860
1857
1855
1895
1941
1968
1970
1957
1975
2019
2031
1995
1949
1945
1957
1957
1935
1898
1879
1871
1847
1818
1793
1799
1803
1802
1778
1762
1776
1791
1793
1777
1762
1801
1893
1997
2061
2079
2211
2582
3207
4071
3837
2886
2087
1520
1327
1430
1651
1773
1779
1737
1691
1697
1712
1714
1705
1697
1721
1744
1747
1739
1723
1747
1766
1774
1750
1744
1773
1787
1795
1779
1771
1797
1818
1827
1815
1819
1847
1869
1880
1872
1872
1904
1930
1938
1931
1935
1971
2000
2011
2004
2007
2044
2067
2077
2064
2062
2082
2091
2064
2019
1984
1979
1962
1927
1878
1840
1839
1827
1808
1774
1754
1770
1775
1765
1739
1730
1754
1767
1759
1742
1735
1759
1767
1763
1736
1730
1754
1773
1766
1739
1738
1760
1770
1769
1746
1743
1765
1776
1773
1750
1748
1770
1776
1776
1756
1759
1777
1783
1783
1759
1757
1787
1794
1783
1762
1760
1785
1793
1789
1765
1770
1791
1802
1794
1771
1776
1793
1811
1801
1772
1767
1804
1813
1804
1791
1799
1808
1808
1795
1777
1799
1808
1826
1803
1777
1802
1813
1817
1818
1805
1809
1840
1857
1859
1871
1906
1952
1969
1949
1940
1972
2004
1968
1936
1897
1909
1925
1914
1879
1834
1819
1827
1823
1799
1764
1770
1791
1782
1772
1751
1766
1782
1787
1776
1796
1888
1988
2026
2060
2187
2627
3407
4095
3632
2679
1958
1495
1379
1488
1653
1754
1773
1752
1713
1682
1696
1713
1721
1712
1697
1717
1737
1744
1729
1722
1744
1767
1776
1762
1754
1776
1801
1804
1796
1792
1817
1839
1841
1836
1828
1860
1887
1904
1894
1891
1930
1954
1971
1967
1970
2000
2032
2042
2032
2034
2064
2093
2097
2080
2064
2082
2075
2043
1999
1959
1945
1929
1899
1856
1826
1827
1824
1808
1774
1747
1760
1767
1763
1741
1729
1751
1767
1763
1739
1730
1749
1761
1759
1744
1737
1757
1761
1761
1735
1727
1753
1762
1755
1744
1741
1759
1775
1774
1748
1745
1770
1776
1776
1762
1758
1779
1791
1785
1763
1763
1790
1795
1789
1768
1767
1790
1803
1793
1770
1771
1798
1803
1797
1776
1775
1798
1807
1796
1776
1778
1803
1807
1801
1778
1782
1808
1818
1814
1790
1795
1816
1823
1818
1792
1798
1819
1826
1812
1795
1803
1823
1829
1818
1800
1804
1825
1839
1838
1817
1826
1856
1883
1900
1904
1921
1947
1967
1982
1975
1968
1957
1949
1936
1909
1915
1919
1894
1851
1814
1811
1825
1817
1802
1776
1779
1797
1793
1777
1762
1775
1794
1807
1856
1915
1983
2018
2129
2448
3027
3937
3858
2928
2167
1615
1390
1461
1631
1739
1751
1747
1741
1728
1712
1701
1719
1741
1739
1724
1715
1737
1761
1767
1760
1747
1767
1791
1794
1789
1777
1802
1817
1821
1811
1803
1830
1850
1859
1856
1848
1875
1904
1914
1910
1904
1937
1972
1985
1984
1983
2011
2033
2042
2035
2034
2066
2086
2095
2077
2059
2054
2033
2004
1965
1921
1915
1904
1874
1837
1803
1806
1802
1791
1771
1751
1771
1777
1780
1763
1747
1776
1787
1786
1764
1755
1776
1789
1786
1764
1750
1779
1792
1791
1776
1765
1786
1798
1794
1779
1774
1791
1799
1793
1776
1772
1793
1806
1797
1774
1769
1788
1796
1794
1776
1773
1792
1795
1795
1775
1774
1795
1808
1801
1776
1776
1797
1808
1802
1783
1783
1811
1826
1819
1797
1795
1821
1825
1823
1801
1797
1814
1824
1819
1804
1807
1831
1840
1835
1807
1805
1824
1838
1831
1808
1821
1858
1897
1914
1920
1935
1961
1975
1996
1984
1963
1948
1941
1935
1913
1905
1907
1879
1840
1808
1805
1811
1808
1792
1768
1773
1781
1789
1778
1758
1765
1783
1807
1857
1925
1999
2043
2155
2474
3047
3959
3920
2965
2154
1557
1333
1428
1625
1741
1744
1737
1728
1717
1709
1687
1703
1719
1727
1718
1707
1722
1744
1749
1744
1729
1749
1778
1791
1787
1773
1795
1821
1834
1824
1808
1836
1858
1870
1869
1861
1884
1910
1926
1921
1917
1942
1975
1996
1998
1993
2021
2054
2064
2061
2047
2077
2096
2096
2069
2032
2030
2019
1993
1950
1905
1902
1891
1870
1826
1790
1791
1793
1781
1759
1738
1750
1766
1766
1744
1728
1751
1771
1769
1750
1735
1755
1775
1771
1751
1741
1759
1775
1765
1745
1728
1750
1767
1769
1755
1749
1771
1783
1778
1759
1749
1776
1793
1791
1771
1764
1783
1799
1794
1771
1758
1780
1797
1793
1767
1761
1787
1797
1794
1773
1763
1781
1793
1795
1776
1770
1791
1799
1792
1775
1769
1791
1803
1802
1778
1776
1793
1804
1798
1777
1770
1797
1808
1808
1788
1785
1805
1811
1809
1791
1783
1808
1819
1814
1791
1786
1808
1824
1813
1791
1794
1819
1822
1815
1799
1808
1849
1882
1904
1903
1905
1939
1971
1993
1963
1933
1933
1936
1927
1895
1885
1881
1857
1826
1789
1783
1799
1802
1782
1755
1757
1776
1787
1781
1762
1769
1795
1845
1918
1966
1999
2087
2341
2854
3685
4095
3297
2432
1758
1380
1382
1581
1729
1769
1731
1715
1716
1713
1698
1679
1693
1723
1737
1728
1712
1722
1750
1762
1752
1739
1759
1786
1791
1791
1776
1797
1823
1827
1817
1807
1826
1860
1871
1871
1859
1882
1915
1931
1933
1926
1959
1989
2006
2004
2002
2029
2062
2077
2078
2064
2087
2107
2101
2078
2041
2032
2026
2000
1954
1907
1895
1883
1858
1825
1795
1794
1793
1788
1764
1744
1759
1776
1775
1744
1739
1751
1767
1761
1739
1722
1743
1759
1762
1745
1727
1744
1765
1769
1746
1738
1753
1775
1778
1763
1747
1771
1779
1776
1757
1746
1769
1781
1779
1751
1744
1773
1787
1791
1776
1759
1776
1783
1783
1763
1758
1778
1789
1786
1769
1759
1780
1791
1795
1776
1770
1791
1795
1793
1781
1776
1795
1806
1804
1784
1777
1802
1808
1808
1783
1780
1799
1811
1809
1790
1786
1807
1813
1818
1795
1792
1810
1823
1824
1802
1795
1811
1824
1822
1795
1793
1822
1839
1840
1830
1843
1887
1918
1926
1918
1919
1963
1989
1968
1923
1906
1927
1936
1921
1877
1853
1843
1829
1811
1777
1776
1789
1792
1780
1757
1757
1776
1783
1776
1753
1767
1843
1920
1965
1965
2101
2465
3111
3981
3706
2805
2111
1615
1387
1421
1599
1742
1777
1750
1705
1697
1712
1712
1711
1695
1712
1733
1746
1744
1733
1745
1767
1776
1774
1761
1776
1803
1808
1808
1792
1806
1833
1846
1840
1834
1855
1880
1893
1895
1883
1908
1936
1952
1953
1947
1971
2000
2018
2018
2006
2032
2064
2074
2067
2057
2071
2092
2086
2047
2009
2000
1986
1966
1923
1889
1875
1871
1851
1820
1794
1794
1808
1798
1779
1760
1771
1790
1791
1773
1756
1775
1792
1795
1776
1764
1783
1799
1807
1787
1775
1791
1803
1806
1790
1781
1801
1812
1808
1791
1776
1791
1808
1805
1791
1778
1797
1808
1808
1792
1778
1798
1809
1808
1797
1782
1807
1817
1813
1792
1783
1802
1810
1811
1797
1791
1809
1829
1823
1806
1798
1817
1831
1823
1807
1803
1819
1831
1835
1812
1804
1818
1827
1824
1808
1795
1825
1829
1830
1819
1826
1872
1911
1934
1936
1936
1958
1982
2016
1987
1937
1939
1940
1942
1901
1895
1874
1862
1853
1801
1787
1803
1803
1787
1765
1775
1776
1776
1780
1771
1759
1781
1830
1909
1968
2017
2094
2318
2784
3565
4095
3368
2496
1814
1413
1360
1535
1712
1774
1744
1716
1719
1713
1709
1685
1694
1719
1725
1730
1712
1727
1747
1762
1761
1744
1755
1786
1794
1808
1782
1786
1813
1809
1822
1808
1815
1847
1859
1861
1851
1871
1901
1919
1922
1916
1936
1970
1986
1995
1986
2000
2038
2062
2064
2043
2062
2079
2081
2061
2016
2001
2000
1973
1934
1886
1870
1862
1844
1810
1776
1771
1776
1773
1758
1733
1743
1761
1766
1758
1733
1743
1761
1762
1751
1734
1746
1767
1767
1751
1735
1744
1764
1765
1755
1735
1750
1771
1776
1763
1744
1756
1776
1783
1767
1750
1766
1785
1790
1774
1755
1772
1792
1793
1776
1756
1767
1788
1791
1778
1764
1778
1792
1791
1779
1766
1783
1801
1807
1786
1776
1794
1810
1810
1793
1776
1799
1810
1809
1792
1782
1803
1815
1822
1806
1786
1804
1822
1820
1795
1780
1807
1818
1825
1810
1795
1811
1830
1831
1811
1799
1826
1840
1840
1821
1807
1833
1855
1868
1869
1882
1930
1965
1972
1957
1955
2002
2025
1994
1943
1921
1938
1952
1941
1895
1854
1843
1841
1833
1798
1781
1795
1804
1793
1766
1760
1778
1792
1794
1774
1794
1902
1997
2035
2043
2212
2661
3407
4095
3629
2688
1966
1499
1385
1499
1669
1776
1786
1757
1709
1693
1713
1733
1725
1708
1709
1742
1761
1758
1743
1744
1771
1789
1790
1771
1774
1794
1811
1815
1806
1810
1841
1856
1856
1840
1842
1874
1894
1895
1885
1898
1937
1962
1968
1956
1968
2002
2030
2031
2026
2035
2075
2094
2096
2073
2078
2096
2090
2064
2013
1988
1981
1965
1927
1875
1859
1856
1841
1817
1779
1768
1782
1782
1767
1742
1748
1776
1782
1772
1746
1757
1776
1780
1773
1750
1760
1782
1787
1776
1754
1767
1788
1789
1781
1759
1771
1784
1792
1777
1762
1772
1789
1792
1779
1765
1775
1795
1801
1792
1775
1783
1797
1803
1793
1776
1787
1808
1813
1795
1776
1787
1810
1820
1803
1782
1790
1808
1806
1794
1783
1803
1824
1825
1808
1787
1799
1813
1819
1808
1792
1808
1822
1820
1807
1789
1809
1824
1827
1811
1792
1811
1829
1834
1808
1788
1807
1825
1830
1814
1802
1821
1839
1838
1814
1795
1815
1839
1839
1821
1806
1820
1834
1831
1814
1808
1839
1858
1875
1875
1895
1927
1953
1955
1957
1977
2003
1994
1968
1936
1925
1940
1936
1914
1861
1824
1826
1825
1810
1779
1770
1783
1792
1786
1765
1754
1778
1793
1791
1808
1874
1964
2001
2038
2237
2717
3555
4095
3370
2490
1823
1461
1407
1535
1682
1744
1759
1742
1723
1694
1684
1707
1721
1727
1711
1710
1735
1754
1754
1737
1735
1769
1783
1783
1769
1774
1802
1810
1811
1793
1804
1838
1851
1853
1839
1846
1873
1889
1888
1878
1899
1933
1952
1958
1953
1966
2000
2012
2018
2010
2020
2052
2064
2064
2043
2036
2055
2047
2018
1975
1949
1939
1918
1881
1839
1823
1825
1811
1792
1757
1757
1769
1769
1757
1728
1730
1750
1760
1755
1738
1741
1761
1760
1754
1733
1747
1773
1777
1773
1745
1755
1777
1790
1782
1759
1761
1780
1787
1776
1753
1761
1776
1781
1778
1755
1773
1791
1791
1779
1762
1772
1791
1798
1787
1765
1778
1805
1804
1789
1771
1777
1795
1807
1793
1776
1793
1808
1813
1802
1783
1796
1821
1823
1808
1787
1806
1816
1819
1808
1787
1798
1813
1815
1807
1791
1803
1815
1823
1808
1795
1807
1823
1827
1811
1803
1813
1829
1834
1823
1808
1834
1870
1899
1907
1918
1947
1968
1981
1991
1985
1982
1972
1957
1936
1921
1927
1926
1890
1840
1809
1814
1821
1808
1791
1773
1787
1799
1798
1785
1770
1788
1799
1825
1878
1940
2009
2060
2218
2608
3297
4095
3689
2737
1981
1490
1379
1505
1683
1762
1758
1748
1741
1721
1701
1691
1716
1730
1732
1712
1710
1737
1759
1760
1744
1739
1767
1783
1789
1773
1775
1798
1814
1823
1811
1811
1840
1855
1867
1859
1859
1889
1909
1921
1917
1918
1954
1979
1990
1982
1986
2029
2055
2062
2047
2047
2079
2096
2097
2074
2057
2063
2045
2010
1963
1931
1922
1905
1880
1834
1810
1821
1811
1799
1775
1762
1781
1787
1781
1757
1757
1782
1789
1782
1756
1749
1776
1786
1779
1757
1757
1779
1789
1777
1755
1755
1776
1785
1778
1758
1760
1779
1789
1781
1755
1770
1789
1798
1794
1773
1775
1794
1804
1795
1771
1773
1798
1810
1802
1778
1785
1808
1808
1802
1777
1787
1805
1808
1794
1775
1779
1808
1819
1810
1792
1793
1809
1818
1808
1790
1797
1818
1825
1819
1793
1807
1826
1829
1815
1796
1805
1828
1837
1823
1801
1813
1840
1851
1845
1842
1878
1920
1953
1954
1932
1954
2007
2017
1981
1925
1920
1936
1933
1904
1867
1847
1840
1828
1798
1771
1779
1791
1790
1774
1746
1765
1779
1777
1774
1751
1791
1883
1967
1999
2005
2158
2549
3231
4095
3761
2832
2090
1559
1359
1439
1644
1759
1772
1729
1685
1690
1707
1710
1693
1676
1697
1722
1728
1719
1712
1734
1751
1759
1746
1744
1767
1792
1799
1789
1776
1807
1828
1835
1825
1817
1840
1863
1872
1872
1870
1904
1936
1941
1931
1933
1970
1998
2013
2007
2005
2035
2069
2077
2068
2064
2091
2097
2083
2042
2007
2001
1984
1955
1904
1873
1872
1859
1840
1799
1781
1794
1799
1789
1759
1745
1770
1779
1777
1759
1751
1775
1777
1769
1747
1743
1760
1776
1778
1755
1745
1770
1779
1775
1757
1755
1779
1789
1790
1769
1765
1790
1792
1787
1767
1764
1787
1807
1803
1776
1775
1794
1807
1803
1783
1781
1805
1815
1808
1784
1785
1808
1819
1809
1786
1786
1813
1823
1815
1790
1790
1809
1818
1808
1792
1791
1814
1826
1813
1791
1783
1808
1818
1808
1784
1789
1808
1811
1809
1786
1790
1809
1821
1809
1787
1787
1811
1817
1809
1797
1810
1849
1887
1903
1904
1917
1938
1965
1978
1950
1951
1936
1933
1927
1901
1878
1885
1863
1825
1787
1790
1808
1791
1777
1751
1769
1780
1778
1786
1758
1771
1783
1808
1869
1926
1975
2012
2161
2535
3201
4080
3720
2800
2066
1554
1377
1476
1655
1749
1751
1741
1731
1718
1705
1689
1707
1724
1731
1723
1712
1728
1743
1762
1739
1737
1755
1781
1787
1775
1763
1778
1803
1807
1798
1787
1808
1834
1840
1838
1828
1856
1883
1898
1887
1882
1913
1941
1959
1957
1957
1983
2007
2023
2021
2014
2033
2062
2062
2035
2013
2011
2003
1981
1938
1903
1895
1879
1856
1819
1789
1792
1798
1782
1755
1733
1749
1761
1759
1743
1730
1746
1760
1759
1734
1722
1744
1759
1751
1733
1727
1744
1759
1761
1744
1737
1753
1770
1769
1749
1742
1762
1777
1776
1758
1749
1774
1786
1778
1759
1751
1773
1781
1782
1769
1758
1777
1789
1781
1769
1758
1781
1794
1795
1776
1770
1792
1803
1796
1776
1770
1792
1808
1807
1787
1779
1799
1809
1808
1790
1787
1808
1819
1815
1794
1790
1812
1825
1822
1801
1795
1814
1833
1838
1829
1838
1882
1919
1939
1937
1941
1967
2001
2021
1984
1941
1946
1951
1945
1918
1904
1904
1873
1847
1807
1794
1810
1809
1805
1774
1770
1791
1795
1793
1773
1770
1797
1843
1917
1969
2000
2082
2318
2807
3616
4095
3358
2491
1815
1409
1367
1535
1719
1776
1744
1715
1717
1719
1711
1691
1695
1722
1738
1735
1721
1730
1759
1767
1765
1747
1763
1790
1806
1800
1781
1791
1821
1839
1838
1812
1829
1856
1872
1873
1869
1882
1915
1927
1927
1916
1938
1975
1995
2001
1993
2010
2043
2064
2063
2045
2070
2099
2107
2091
2047
2033
2027
2000
1959
1909
1895
1891
1871
1840
1799
1798
1805
1797
1776
1751
1767
1780
1780
1771
1748
1759
1777
1783
1767
1744
1757
1777
1780
1767
1745
1761
1778
1782
1773
1753
1767
1791
1792
1779
1756
1775
1790
1792
1778
1764
1785
1797
1803
1787
1771
1782
1799
1799
1782
1773
1786
1802
1806
1783
1767
1783
1805
1807
1790
1776
1798
1812
1816
1795
1777
1795
1815
1821
1803
1788
1810
1825
1823
1808
1797
1811
1831
1830
1811
1797
1821
1835
1831
1811
1804
1825
1840
1840
1815
1805
1824
1837
1839
1826
1833
1879
1918
1949
1938
1935
1957
1994
2017
1987
1941
1943
1953
1947
1918
1894
1893
1872
1847
1808
1790
1799
1808
1803
1783
1767
1789
1797
1802
1776
1765
1790
1845
1921
1968
1985
2064
2314
2832
3681
4095
3328
2471
1796
1398
1375
1567
1727
1782
1754
1717
1717
1723
1714
1695
1697
1728
1741
1742
1725
1725
1754
1779
1771
1753
1757
1787
1802
1800
1779
1787
1817
1840
1840
1824
1831
1861
1877
1878
1869
1873
1904
1925
1933
1924
1936
1975
1998
1998
1990
2007
2046
2067
2067
2044
2062
2090
2096
2081
2032
2015
2016
1994
1961
1905
1879
1875
1866
1831
1786
1775
1785
1785
1765
1733
1734
1755
1751
1743
1718
1727
1745
1755
1744
1724
1729
1747
1756
1746
1727
1727
1750
1754
1744
1718
1729
1751
1755
1744
1719
1733
1758
1765
1757
1735
1744
1765
1771
1761
1741
1748
1774
1777
1770
1744
1760
1778
1776
1769
1747
1760
1777
1782
1776
1755
1767
1788
1792
1778
1758
1776
1793
1797
1788
1770
1782
1799
1805
1787
1767
1778
1802
1803
1787
1771
1791
1810
1811
1803
1779
1792
1815
1819
1808
1789
1804
1821
1824
1809
1797
1811
1832
1829
1809
1794
1813
1834
1840
1828
1831
1871
1909
1925
1922
1918
1947
1985
2001
1969
1928
1932
1943
1941
1915
1887
1876
1860
1839
1811
1785
1793
1803
1798
1774
1756
1778
1791
1791
1776
1764
1793
1858
1933
1968
1971
2078
2384
2960
3855
3952
3067
2303
1717
1401
1398
1584
1735
1778
1751
1715
1716
1729
1727
1708
1697
1723
1744
1749
1734
1725
1748
1773
1776
1759
1758
1782
1797
1799
1787
1786
1815
1834
1841
1829
1825
1856
1872
1876
1863
1869
1901
1930
1936
1934
1934
1967
1987
1998
1985
1991
2028
2055
2062
2058
2059
2082
2096
2081
2043
2019
2019
2000
1970
1924
1895
1891
1877
1857
1813
1796
1809
1812
1799
1777
1773
1785
1791
1787
1766
1775
1793
1801
1792
1773
1771
1791
1797
1789
1766
1770
1791
1798
1789
1764
1763
1791
1797
1788
1769
1773
1795
1803
1796
1776
1778
1798
1808
1803
1782
1783
1807
1810
1803
1781
1781
1798
1808
1802
1786
1786
1809
1818
1814
1793
1803
1817
1825
1814
1797
1803
1823
1828
1821
1807
1809
1828
1831
1818
1798
1807
1825
1829
1821
1801
1809
1829
1840
1823
1802
1808
1829
1838
1826
1811
1823
1854
1879
1902
1904
1933
1965
1970
1981
1988
1987
1974
1950
1932
1911
1920
1930
1906
1859
1813
1809
1819
1818
1803
1775
1778
1797
1797
1780
1759
1776
1799
1803
1825
1889
1987
2047
2095
2269
2689
3474
4095
3549
2623
1903
1479
1405
1535
1693
1754
1773
1763
1737
1711
1683
1706
1731
1741
1729
1715
1740
1759
1771
1755
1743
1767
1787
1794
1786
1773
1794
1823
1827
1813
1805
1828
1853
1862
1854
1845
1872
1902
1911
1904
1899
1927
1958
1970
1968
1963
1991
2022
2035
2030
2029
2064
2087
2089
2071
2039
2057
2045
2017
1972
1932
1919
1904
1876
1838
1806
1803
1803
1791
1767
1744
1758
1769
1770
1744
1738
1750
1766
1762
1740
1727
1750
1766
1763
1744
1734
1749
1761
1761
1743
1731
1751
1766
1767
1745
1737
1763
1777
1776
1751
1744
1770
1789
1786
1761
1749
1775
1787
1781
1763
1754
1777
1790
1787
1769
1762
1782
1793
1795
1773
1766
1791
1806
1802
1777
1775
1799
1808
1799
1786
1783
1807
1818
1815
1795
1794
1818
1838
1828
1805
1805
1830
1838
1839
1814
1811
1837
1843
1840
1815
1821
1846
1861
1868
1865
1883
1931
1957
1961
1946
1958
2000
2005
1968
1920
1914
1934
1936
1918
1874
1849
1844
1839
1817
1782
1776
1798
1799
1792
1761
1767
1795
1808
1801
1776
1795
1886
1972
2006
2005
2171
2603
3314
4095
3705
2779
2032
1535
1375
1461
1650
1770
1805
1753
1722
1712
1723
1740
1722
1690
1721
1759
1755
1747
1725
1742
1773
1780
1779
1763
1776
1803
1813
1821
1794
1808
1831
1851
1840
1822
1840
1875
1886
1888
1872
1893
1923
1943
1945
1942
1966
1999
2014
2021
2013
2033
2078
2093
2083
2069
2078
2084
2082
2042
1990
1982
1973
1950
1909
1862
1855
1846
1828
1791
1760
1769
1773
1774
1757
1733
1750
1766
1765
1745
1727
1744
1764
1761
1744
1728
1743
1761
1766
1748
1735
1750
1773
1776
1757
1741
1753
1772
1776
1759
1751
1775
1783
1783
1766
1751
1767
1780
1790
1776
1761
1781
1798
1799
1779
1760
1778
1789
1787
1774
1767
1785
1792
1792
1775
1767
1786
1804
1798
1781
1771
1789
1795
1793
1785
1773
1791
1807
1807
1786
1775
1791
1808
1808
1790
1776
1795
1808
1809
1792
1782
1805
1815
1813
1796
1785
1808
1819
1825
1814
1823
1872
1911
1934
1926
1923
1966
1995
1981
1936
1906
1920
1931
1919
1886
1856
1846
1829
1814
1781
1759
1779
1795
1789
1767
1755
1773
1786
1781
1760
1759
1819
1904
1967
1968
2007
2269
2778
3616
4016
3205
2432
1840
1469
1375
1495
1680
1765
1759
1718
1697
1712
1713
1712
1691
1696
1721
1739
1734
1723
1730
1750
1765
1765
1747
1755
1784
1792
1783
1775
1785
1814
1826
1831
1815
1819
1843
1860
1870
1856
1865
1895
1915
1923
1916
1929
1957
1974
1981
1973
1981
2011
2032
2032
2017
2021
2037
2038
2022
1991
1981
1969
1948
1914
1866
1845
1841
1826
1797
1765
1763
1771
1770
1757
1728
1734
1751
1744
1730
1711
1719
1742
1747
1741
1719
1729
1751
1759
1746
1728
1740
1757
1761
1748
1733
1744
1759
1765
1750
1728
1743
1767
1771
1751
1733
1741
1758
1763
1759
1742
1754
1775
1772
1759
1744
1759
1774
1771
1758
1744
1755
1775
1781
1769
1754
1769
1785
1785
1776
1759
1776
1788
1786
1782
1770
1776
1795
1803
1798
1781
1808
1845
1872
1889
1891
1911
1934
1963
1968
1935
1921
1920
1920
1908
1885
1877
1872
1840
1799
1776
1776
1778
1776
1757
1743
1749
1761
1758
1743
1731
1754
1775
1811
1878
1947
1997
2083
2324
2795
3566
3949
3136
2353
1772
1423
1377
1515
1675
1735
1727
1725
1719
1712
1698
1681
1703
1719
1728
1716
1716
1737
1751
1755
1751
1746
1776
1791
1792
1779
1776
1801
1820
1829
1818
1814
1841
1863
1871
1869
1866
1894
1915
1923
1920
1927
1961
1983
1995
1989
1996
2027
2047
2054
2039
2041
2068
2083
2080
2057
2026
2023
2010
1979
1935
1904
1894
1879
1855
1819
1802
1805
1801
1792
1775
1763
1779
1783
1777
1763
1753
1776
1779
1776
1766
1761
1781
1792
1786
1767
1762
1781
1789
1785
1759
1758
1776
1783
1789
1771
1769
1786
1796
1791
1775
1769
1794
1808
1806
1785
1783
1808
1818
1815
1790
1786
1808
1816
1808
1791
1786
1809
1821
1811
1793
1794
1815
1822
1815
1798
1803
1828
1835
1843
1847
1875
1925
1945
1942
1931
1961
1991
1971
1933
1894
1902
1924
1921
1894
1851
1823
1821
1815
1801
1769
1763
1776
1782
1771
1744
1746
1766
1776
1771
1751
1790
1907
2011
2069
2096
2272
2704
3427
4095
3485
2588
1877
1438
1342
1469
1660
1761
1769
1729
1685
1686
1706
1712
1703
1680
1696
1722
1733
1731
1718
1728
1753
1767
1759
1744
1763
1790
1805
1799
1783
1808
1833
1845
1840
1826
1845
1875
1885
1884
1872
1902
1935
1951
1961
1964
1983
2013
2031
2031
2027
2054
2080
2090
2075
2057
2070
2082
2063
2014
1967
1951
1936
1909
1870
1823
1821
1818
1803
1776
1744
1755
1763
1769
1754
1735
1753
1773
1776
1754
1733
1746
1770
1767
1744
1728
1744
1765
1764
1744
1729
1745
1769
1769
1757
1744
1759
1775
1781
1765
1749
1765
1781
1787
1774
1763
1776
1793
1793
1776
1762
1783
1807
1801
1786
1771
1786
1807
1805
1787
1773
1795
1813
1815
1798
1787
1808
1822
1821
1798
1786
1807
1820
1814
1797
1789
1808
1823
1820
1809
1799
1840
1883
1913
1921
1926
1946
1968
1985
1977
1937
1931
1946
1923
1897
1879
1888
1875
1840
1801
1776
1791
1798
1790
1765
1750
1774
1783
1779
1761
1746
1774
1792
1839
1910
1987
2056
2113
2338
2813
3638
4095
3401
2499
1787
1392
1379
1555
1712
1749
1729
1729
1719
1711
1687
1686
1712
1731
1734
1712
1715
1744
1759
1767
1745
1750
1777
1795
1794
1776
1776
1808
1831
1833
1817
1818
1845
1862
1861
1849
1856
1891
1911
1919
1904
1915
1951
1973
1984
1978
1991
2028
2046
2054
2039
2053
2085
2093
2079
2039
2025
2023
2005
1971
1922
1899
1891
1871
1841
1802
1787
1791
1785
1773
1744
1744
1767
1769
1762
1743
1744
1768
1774
1764
1737
1744
1770
1774
1761
1732
1730
1756
1769
1762
1744
1746
1763
1774
1767
1744
1751
1776
1787
1778
1758
1766
1787
1788
1776
1758
1774
1799
1806
1792
1773
1777
1795
1798
1791
1769
1778
1799
1805
1786
1761
1775
1794
1798
1789
1767
1779
1799
1805
1791
1772
1782
1802
1804
1794
1774
1783
1805
1807
1793
1776
1790
1808
1809
1803
1783
1792
1808
1809
1799
1783
1797
1820
1824
1808
1786
1806
1831
1840
1851
1859
1895
1935
1948
1936
1933
1973
1991
1968
1922
1904
1919
1932
1926
1889
1836
1825
1827
1822
1798
1776
1783
1793
1791
1776
1753
1771
1785
1787
1775
1783
1872
1959
2000
2013
2163
2583
3318
4095
3561
2653
1982
1535
1392
1473
1633
1747
1776
1746
1712
1687
1702
1714
1723
1712
1704
1727
1744
1749
1735
1730
1753
1776
1776
1760
1757
1778
1794
1796
1783
1776
1798
1815
1824
1817
1813
1838
1859
1867
1861
1857
1890
1909
1922
1918
1921
1959
1981
1986
1978
1975
2006
2032
2045
2030
2022
2039
2037
2019
1975
1938
1934
1920
1890
1839
1806
1806
1795
1771
1745
1728
1739
1744
1738
1718
1712
1730
1744
1735
1717
1712
1730
1743
1745
1730
1724
1742
1754
1748
1727
1727
1761
1765
1761
1742
1739
1766
1786
1761
1738
1738
1769
1786
1790
1763
1751
1761
1750
1760
1755
1744
1775
1786
1776
1761
1762
1776
1776
1777
1760
1764
1787
1792
1786
1770
1774
1797
1803
1791
1772
1773
1792
1803
1794
1791
1781
1802
1819
1802
1789
1791
1811
1819
1810
1786
1802
1815
1849
1862
1870
1895
1926
1927
1936
1953
1984
1968
1948
1929
1905
1904
1910
1902
1867
1814
1801
1808
1795
1782
1757
1758
1776
1777
1767
1751
1765
1779
1776
1778
1819
1910
2000
2031
2113
2389
2956
3836
3833
2908
2169
1658
1412
1414
1564
1681
1738
1745
1731
1705
1682
1695
1717
1727
1727
1712
1719
1744
1757
1755
1744
1760
1777
1782
1777
1771
1790
1806
1816
1809
1799
1823
1843
1854
1845
1837
1853
1879
1893
1890
1886
1917
1948
1958
1959
1957
1982
2010
2018
2016
2011
2032
2061
2064
2058
2033
2035
2032
2007
1974
1937
1925
1911
1894
1857
1827
1825
1825
1808
1777
1755
1769
1781
1779
1766
1754
1771
1787
1781
1771
1753
1775
1785
1786
1773
1757
1777
1792
1788
1776
1763
1781
1795
1796
1781
1770
1779
1788
1782
1776
1773
1789
1802
1798
1788
1776
1797
1808
1808
1791
1781
1801
1809
1809
1792
1781
1800
1810
1809
1802
1791
1810
1829
1830
1809
1803
1824
1840
1838
1812
1805
1822
1837
1840
1822
1820
1848
1887
1914
1922
1939
1968
1975
1993
1989
1971
1963
1951
1939
1919
1904
1913
1914
1874
1834
1813
1820
1822
1808
1789
1774
1790
1797
1792
1776
1775
1793
1807
1828
1899
1994
2091
2138
2283
2640
3297
4095
3695
2732
1954
1461
1344
1485
1671
1749
1759
1755
1743
1725
1701
1696
1724
1738
1734
1719
1728
1753
1767
1760
1744
1744
1775
1790
1791
1778
1782
1809
1827
1826
1808
1813
1846
1872
1875
1861
1872
1904
1923
1934
1920
1931
1969
1991
2000
1999
2009
2043
2064
2070
2055
2069
2096
2106
2098
2065
2043
2033
2013
1974
1921
1890
1887
1869
1843
1799
1783
1791
1791
1773
1743
1744
1766
1769
1762
1738
1741
1761
1770
1763
1739
1744
1762
1762
1758
1735
1741
1759
1772
1764
1742
1747
1776
1776
1773
1750
1759
1779
1791
1782
1758
1765
1791
1798
1790
1766
1776
1795
1805
1797
1776
1785
1808
1810
1797
1776
1786
1807
1809
1792
1776
1789
1808
1814
1802
1776
1789
1808
1810
1799
1779
1793
1815
1819
1808
1789
1801
1822
1827
1820
1799
1813
1833
1833
1822
1797
1815
1841
1855
1856
1869
1911
1954
1968
1957
1936
1971
2009
2000
1961
1913
1922
1936
1933
1906
1857
1840
1834
1827
1805
1774
1776
1790
1792
1775
1756
1771
1787
1792
1779
1765
1833
1950
2035
2067
2096
2331
2845
3701
4095
3392
2506
1820
1425
1380
1525
1711
1787
1776
1725
1687
1699
1719
1723
1707
1696
1723
1744
1746
1729
1716
1744
1772
1776
1767
1753
1782
1805
1808
1799
1786
1809
1833
1840
1834
1829
1856
1881
1890
1877
1874
1906
1936
1951
1949
1951
1986
2013
2029
2019
2027
2064
2089
2093
2077
2071
2095
2096
2070
2022
1980
1971
1962
1935
1882
1841
1846
1840
1818
1789
1761
1776
1785
1776
1752
1744
1763
1776
1776
1755
1744
1771
1783
1779
1751
1742
1772
1785
1787
1762
1747
1770
1777
1777
1757
1747
1769
1781
1786
1767
1755
1776
1791
1788
1767
1764
1786
1798
1803
1776
1770
1791
1801
1805
1778
1773
1795
1808
1807
1785
1778
1803
1811
1805
1781
1776
1799
1809
1809
1794
1793
1821
1828
1827
1797
1793
1818
1827
1819
1794
1794
1821
1835
1828
1808
1808
1829
1839
1835
1813
1810
1829
1840
1833
1808
1808
1828
1839
1830
1809
1811
1840
1844
1843
1825
1827
1846
1853
1842
1819
1826
1849
1851
1842
1825
1827
1845
1851
1845
1822
1827
1844
1850
1840
1814
1818
1856
1877
1883
1882
1904
1941
1961
1970
1979
2000
2005
1982
1953
1931
1936
1949
1939
1901
1841
1829
1836
1834
1816
1791
1794
1809
1808
1803
1780
1787
1809
1807
1821
1872
1965
2029
2059
2195
2559
3267
4095
3717
2751
2000
1514
1380
1489
1656
1735
1758
1757
1732
1701
1677
1689
1713
1724
1712
1702
1717
1739
1746
1744
1734
1751
1776
1783
1776
1758
1778
1807
1813
1805
1791
1812
1845
1855
1840
1831
1856
1882
1889
1887
1883
1910
1942
1955
1950
1950
1977
2003
2017
2016
2009
2033
2064
2074
2064
2042
2047
2055
2032
2000
1958
1942
1930
1905
1870
1829
1825
1822
1808
1777
1755
1763
1771
1764
1749
1734
1750
1771
1770
1750
1741
1757
1773
1775
1761
1744
1761
1771
1770
1760
1747
1769
1780
1776
1762
1749
1773
1785
1782
1762
1750
1766
1779
1780
1769
1751
1771
1785
1776
1755
1746
1771
1782
1783
1765
1760
1776
1792
1788
1772
1763
1787
1805
1806
1783
1767
1786
1803
1804
1787
1779
1802
1809
1808
1786
1777
1803
1812
1811
1795
1785
1808
1814
1811
1793
1789
1808
1825
1819
1802
1793
1813
1830
1829
1808
1803
1821
1827
1827
1810
1823
1872
1911
1923
1922
1922
1950
1987
2002
1968
1936
1938
1945
1938
1914
1897
1887
1858
1831
1799
1791
1806
1808
1799
1773
1762
1782
1791
1787
1766
1763
1799
1868
1949
1998
2025
2135
2446
3013
3888
3967
3059
2258
1662
1359
1398
1607
1749
1779
1738
1706
1708
1712
1705
1691
1694
1720
1734
1731
1714
1721
1746
1758
1754
1741
1751
1779
1796
1789
1773
1777
1808
1819
1819
1804
1820
1851
1860
1862
1849
1871
1900
1917
1920
1915
1936
1968
1986
1989
1984
2002
2038
2061
2059
2041
2060
2082
2087
2065
2021
2002
2001
1979
1941
1895
1881
1877
1858
1825
1785
1778
1791
1786
1771
1743
1746
1772
1777
1762
1742
1747
1763
1766
1755
1734
1744
1759
1767
1757
1735
1745
1773
1775
1761
1741
1748
1773
1776
1765
1744
1757
1776
1777
1772
1742
1763
1786
1783
1775
1747
1775
1793
1790
1782
1767
1775
1791
1793
1777
1759
1779
1798
1802
1787
1773
1783
1805
1808
1795
1773
1777
1796
1798
1812
1778
1794
1810
1808
1797
1791
1806
1829
1811
1808
1794
1808
1829
1838
1793
1792
1799
1825
1835
1814
1799
1808
1835
1834
1818
1802
1814
1839
1840
1827
1805
1823
1854
1872
1888
1892
1943
1962
1979
1983
1981
2002
2000
1968
1937
1913
1936
1934
1915
1858
1821
1813
1819
1812
1791
1778
1786
1791
1791
1771
1755
1778
1794
1801
1807
1874
1983
2061
2077
2205
2593
3313
4095
3823
2810
2011
1511
1390
1513
1669
1746
1776
1765
1738
1695
1680
1707
1728
1731
1712
1709
1737
1753
1757
1737
1733
1759
1779
1787
1770
1772
1803
1819
1813
1805
1801
1835
1856
1865
1854
1851
1887
1904
1913
1903
1904
1943
1971
1983
1970
1979
2011
2040
2055
2045
2060
2087
2106
2112
2093
2077
2090
2082
2047
2000
1968
1963
1946
1913
1866
1838
1840
1834
1811
1777
1767
1783
1789
1782
1758
1755
1782
1791
1776
1758
1758
1777
1790
1782
1759
1762
1776
1787
1781
1755
1757
1776
1789
1778
1757
1759
1783
1792
1790
1771
1773
1793
1801
1805
1791
1788
1808
1815
1810
1785
1790
1811
1821
1809
1785
1791
1819
1824
1811
1788
1793
1815
1822
1818
1804
1805
1827
1834
1825
1799
1803
1824
1825
1819
1802
1805
1837
1841
1837
1808
1815
1840
1845
1840
1821
1829
1847
1857
1849
1823
1837
1855
1860
1856
1827
1837
1861
1865
1856
1840
1844
1862
1867
1857
1840
1859
1897
1923
1938
1937
1965
1991
2010
2029
2014
2001
1999
1987
1975
1954
1951
1945
1915
1871
1839
1841
1855
1850
1838
1811
1825
1840
1843
1823
1808
1814
1838
1870
1922
1972
2025
2071
2243
2649
3375
4095
3680
2739
2015
1535
1420
1535
1719
1798
1794
1791
1791
1777
1753
1733
1750
1776
1776
1766
1755
1776
1804
1808
1803
1789
1809
1837
1840
1828
1821
1841
1863
1871
1861
1852
1873
1893
1903
1894
1890
1918
1938
1952
1947
1947
1975
2001
2013
2011
2006
2032
2066
2082
2075
2067
2091
2110
2111
2091
2064
2067
2059
2025
1977
1937
1936
1924
1903
1857
1827
1835
1838
1817
1789
1773
1783
1797
1806
1788
1771
1779
1779
1785
1767
1755
1777
1783
1785
1771
1761
1777
1795
1791
1767
1756
1777
1792
1791
1774
1765
1785
1795
1792
1769
1757
1782
1797
1795
1773
1769
1795
1805
1799
1777
1770
1790
1793
1787
1776
1772
1790
1799
1794
1775
1769
1790
1803
1804
1785
1780
1802
1809
1806
1777
1775
1796
1808
1798
1776
1769
1788
1798
1793
1771
1769
1791
1799
1793
1778
1776
1807
1822
1833
1840
1861
1914
1943
1943
1926
1938
1987
1987
1950
1909
1904
1922
1926
1908
1869
1829
1815
1811
1801
1764
1754
1774
1775
1766
1742
1734
1761
1767
1759
1741
1763
1877
1968
2002
2025
2230
2702
3472
4087
3367
2498
1842
1439
1345
1462
1645
1744
1749
1714
1664
1656
1678
1685
1680
1664
1677
1703
1714
1712
1696
1713
1739
1749
1750
1739
1753
1779
1795
1791
1776
1792
1824
1839
1830
1819
1839
1870
1885
1883
1874
1894
1931
1951
1955
1953
1981
2014
2030
2030
2019
2042
2077
2096
2090
2067
2070
2081
2070
2032
1981
1962
1955
1935
1893
1846
1834
1840
1826
1797
1765
1763
1776
1778
1765
1741
1744
1766
1771
1759
1739
1745
1761
1763
1747
1730
1746
1767
1776
1761
1739
1753
1773
1774
1759
1741
1755
1776
1773
1761
1743
1757
1776
1776
1762
1744
1764
1779
1779
1765
1744
1762
1787
1787
1776
1759
1777
1805
1802
1787
1771
1785
1802
1808
1791
1769
1790
1808
1810
1792
1776
1793
1819
1814
1794
1778
1799
1815
1819
1807
1791
1809
1823
1827
1811
1796
1811
1829
1829
1808
1798
1815
1839
1850
1856
1870
1915
1948
1949
1936
1951
1982
1979
1951
1924
1905
1918
1926
1904
1855
1809
1808
1809
1796
1767
1753
1771
1781
1776
1751
1741
1755
1776
1776
1764
1809
1919
2010
2036
2096
2353
2921
3862
4095
3211
2352
1723
1406
1417
1575
1712
1776
1774
1744
1703
1683
1711
1721
1719
1702
1700
1725
1744
1743
1727
1724
1755
1774
1776
1759
1760
1789
1806
1805
1794
1792
1823
1845
1853
1842
1844
1874
1901
1903
1893
1897
1925
1946
1962
1954
1968
2000
2023
2033
2027
2032
2067
2085
2090
2070
2067
2086
2084
2053
1989
1955
1950
1928
1894
1845
1814
1813
1808
1782
1744
1732
1749
1753
1745
1726
1724
1747
1755
1749
1730
1723
1743
1751
1744
1719
1719
1745
1755
1755
1728
1728
1750
1763
1762
1733
1735
1762
1776
1772
1745
1750
1776
1787
1781
1758
1761
1781
1787
1783
1765
1769
1792
1801
1795
1772
1774
1799
1808
1798
1775
1779
1805
1811
1803
1783
1791
1817
1829
1815
1796
1804
1822
1838
1829
1795
1802
1824
1837
1825
1802
1807
1831
1837
1821
1803
1819
1841
1843
1835
1810
1823
1841
1845
1840
1821
1830
1843
1843
1833
1812
1820
1842
1846
1840
1820
1841
1891
1918
1926
1917
1936
1968
2000
2003
1971
1959
1965
1963
1943
1916
1918
1911
1882
1847
1809
1817
1824
1819
1797
1777
1788
1808
1808
1792
1775
1778
1815
1879
1942
1969
2002
2145
2499
3135
4017
3835
2906
2160
1615
1372
1453
1645
1758
1765
1725
1710
1713
1709
1695
1679
1706
1726
1729
1718
1710
1733
1754
1766
1758
1748
1773
1798
1797
1779
1772
1797
1819
1827
1818
1811
1843
1872
1872
1870
1869
1892
1910
1919
1915
1917
1949
1982
1998
1991
1987
2025
2053
2064
2055
2045
2075
2096
2093
2064
2027
2025
2022
1993
1943
1904
1898
1878
1856
1813
1782
1795
1794
1779
1746
1728
1744
1758
1755
1737
1728
1744
1754
1750
1728
1718
1742
1751
1744
1726
1713
1731
1750
1755
1735
1725
1744
1751
1754
1737
1735
1754
1769
1766
1744
1740
1757
1770
1761
1738
1731
1755
1773
1772
1744
1731
1751
1758
1751
1741
1737
1762
1775
1769
1746
1744
1763
1778
1773
1750
1746
1770
1776
1776
1759
1753
1773
1779
1776
1758
1755
1780
1795
1792
1775
1764
1785
1785
1792
1789
1778
1802
1817
1821
1820
1856
1875
1918
1949
1944
1936
1980
2000
1983
1935
1905
1941
1945
1934
1899
1875
1887
1850
1834
1803
1793
1803
1806
1791
1767
1774
1789
1793
1792
1772
1779
1840
1930
1998
2010
2086
2366
2893
3724
4021
3153
2368
1778
1436
1387
1535
1697
1791
1749
1725
1711
1742
1726
1712
1699
1721
1739
1739
1740
1727
1742
1767
1776
1774
1754
1772
1798
1809
1808
1792
1803
1829
1845
1844
1835
1852
1874
1884
1879
1872
1897
1931
1947
1943
1939
1961
1989
2009
2007
2000
2022
2058
2066
2064
2039
2055
2071
2074
2043
2004
1995
1988
1968
1925
1877
1867
1857
1841
1809
1778
1779
1790
1789
1773
1747
1759
1773
1776
1760
1744
1753
1775
1776
1761
1744
1762
1782
1781
1763
1746
1763
1785
1791
1776
1758
1773
1790
1790
1774
1754
1775
1785
1785
1772
1756
1775
1790
1789
1773
1750
1762
1777
1786
1769
1751
1773
1785
1786
1770
1755
1777
1795
1790
1776
1760
1776
1786
1785
1776
1759
1777
1793
1791
1776
1762
1782
1799
1799
1783
1776
1799
1814
1810
1795
1789
1808
1823
1823
1807
1790
1808
1827
1825
1808
1803
1835
1874
1903
1909
1917
1943
1961
1982
1983
1957
1939
1938
1936
1918
1899
1905
1897
1861
1815
1791
1806
1808
1792
1766
1751
1773
1783
1782
1759
1754
1777
1799
1847
1920
1989
2054
2126
2381
2877
3735
4095
3295
2411
1726
1360
1385
1579
1732
1763
1743
1733
1727
1715
1696
1695
1723
1739
1743
1728
1725
1754
1775
1777
1763
1765
1791
1806
1805
1792
1786
1818
1836
1839
1822
1825
1855
1875
1884
1872
1874
1904
1929
1935
1926
1939
1977
2000
2007
2000
2014
2055
2079
2084
2073
2078
2111
2125
2115
2083
2064
2065
2054
2015
1968
1936
1926
1909
1879
1839
1819
1829
1829
1810
1785
1778
1795
1798
1790
1763
1758
1782
1792
1789
1763
1761
1782
1787
1777
1753
1751
1771
1781
1776
1750
1755
1779
1792
1786
1763
1760
1781
1792
1786
1767
1773
1793
1802
1795
1774
1776
1796
1806
1794
1776
1781
1802
1805
1795
1776
1784
1809
1815
1809
1781
1782
1808
1819
1808
1789
1794
1815
1823
1817
1800
1808
1831
1837
1824
1807
1815
1838
1841
1834
1813
1822
1841
1848
1839
1809
1821
1840
1841
1833
1806
1814
1837
1838
1825
1808
1818
1841
1846
1837
1809
1824
1846
1852
1837
1813
1821
1843
1850
1837
1810
1823
1846
1860
1869
1875
1916
1950
1966
1966
1969
2017
2037
2014
1969
1936
1951
1967
1958
1917
1861
1849
1845
1841
1814
1790
1794
1808
1806
1782
1766
1782
1799
1801
1789
1811
1911
2001
2034
2070
2294
2829
3744
4095
3371
2458
1789
1424
1398
1535
1689
1765
1765
1735
1696
1674
1698
1722
1728
1715
1702
1730
1757
1763
1751
1739
1759
1774
1776
1771
1764
1791
1808
1812
1797
1791
1816
1840
1853
1842
1831
1856
1882
1890
1885
1882
1919
1942
1959
1954
1952
1986
2020
2032
2023
2021
2058
2078
2085
2070
2063
2087
2096
2078
2034
1995
1984
1971
1938
1897
1850
1847
1840
1819
1786
1769
1777
1783
1778
1752
1744
1762
1776
1776
1750
1742
1755
1765
1763
1744
1737
1763
1776
1769
1745
1739
1761
1764
1762
1744
1741
1755
1766
1767
1744
1737
1761
1772
1765
1744
1739
1759
1767
1758
1739
1739
1766
1773
1771
1753
1747
1769
1776
1775
1749
1744
1757
1764
1765
1744
1743
1762
1768
1759
1740
1734
1761
1773
1764
1743
1737
1757
1764
1767
1742
1733
1761
1771
1767
1744
1746
1767
1776
1775
1753
1754
1776
1781
1768
1744
1746
1770
1779
1773
1753
1758
1783
1789
1779
1755
1753
1775
1786
1778
1773
1789
1834
1870
1886
1882
1899
1930
1965
1969
1936
1919
1926
1926
1917
1892
1878
1870
1840
1808
1773
1774
1786
1789
1776
1757
1755
1776
1780
1771
1744
1750
1786
1843
1911
1946
1975
2114
2455
3058
3920
3787
2892
2163
1634
1377
1424
1605
1730
1759
1727
1711
1710
1712
1698
1680
1692
1719
1725
1719
1698
1713
1739
1749
1744
1730
1746
1763
1773
1763
1753
1763
1792
1794
1783
1774
1795
1827
1840
1840
1831
1851
1877
1893
1894
1889
1920
1946
1953
1950
1951
1979
2007
2023
2023
2018
2039
2067
2067
2041
2017
2013
2006
1981
1937
1894
1877
1866
1845
1810
1781
1781
1787
1776
1748
1728
1744
1754
1760
1747
1735
1747
1761
1766
1748
1734
1750
1772
1775
1763
1748
1770
1782
1786
1770
1755
1771
1783
1785
1771
1753
1773
1781
1779
1766
1751
1769
1780
1777
1765
1755
1776
1791
1792
1777
1769
1791
1806
1807
1791
1771
1789
1798
1795
1782
1776
1797
1808
1811
1793
1786
1808
1818
1818
1805
1793
1819
1837
1834
1817
1808
1830
1840
1841
1835
1831
1855
1862
1861
1844
1841
1870
1891
1914
1922
1938
1979
1995
1993
1999
2006
2003
1985
1967
1949
1941
1957
1948
1921
1861
1831
1839
1837
1821
1795
1786
1802
1806
1802
1783
1775
1792
1804
1808
1842
1929
2032
2075
2146
2391
2913
3827
4095
3184
2333
1713
1419
1429
1590
1713
1763
1776
1759
1734
1706
1703
1726
1728
1726
1712
1720
1744
1750
1750
1739
1745
1775
1785
1785
1774
1776
1807
1815
1818
1802
1810
1837
1850
1856
1840
1851
1882
1898
1904
1898
1913
1942
1959
1966
1958
1972
2001
2019
2022
2014
2023
2062
2077
2075
2058
2057
2063
2043
2006
1957
1936
1931
1904
1876
1833
1813
1815
1809
1791
1760
1765
1776
1776
1767
1744
1744
1765
1775
1771
1751
1765
1790
1790
1778
1753
1766
1787
1793
1793
1778
1791
1808
1795
1776
1747
1758
1782
1788
1779
1763
1773
1787
1792
1791
1776
1787
1808
1810
1805
1786
1794
1822
1830
1819
1798
1803
1822
1823
1814
1793
1799
1819
1815
1807
1791
1808
1828
1835
1823
1805
1819
1837
1837
1823
1802
1814
1838
1847
1831
1814
1826
1846
1843
1833
1811
1827
1845
1852
1835
1814
1829
1851
1855
1849
1855
1873
1909
1943
1936
1931
1953
1988
2017
2014
1983
1965
1964
1954
1943
1908
1905
1906
1854
1840
1810
1824
1847
1831
1805
1777
1799
1811
1810
1783
1782
1791
1823
1897
1980
2020
2075
2193
2545
3168
4070
3971
2993
2186
1599
1356
1456
1663
1784
1787
1742
1734
1728
1719
1709
1692
1718
1734
1741
1729
1729
1754
1769
1775
1761
1747
1776
1793
1801
1781
1779
1808
1831
1839
1829
1824
1853
1871
1875
1866
1862
1893
1921
1934
1920
1921
1958
1984
2000
1994
1999
2038
2067
2078
2071
2067
2100
2120
2112
2085
2058
2046
2031
1998
1949
1906
1904
1890
1861
1811
1787
1797
1792
1777
1751
1744
1760
1771
1769
1747
1737
1759
1773
1767
1742
1738
1759
1769
1763
1743
1734
1753
1769
1761
1737
1735
1761
1774
1764
1735
1736
1761
1777
1778
1757
1754
1776
1787
1779
1758
1755
1776
1791
1783
1762
1761
1779
1793
1793
1775
1766
1790
1803
1793
1771
1767
1792
1806
1797
1775
1780
1808
1822
1811
1791
1791
1819
1829
1825
1799
1802
1830
1837
1833
1804
1806
1825
1823
1813
1793
1793
1819
1831
1821
1791
1791
1812
1825
1819
1795
1797
1818
1824
1829
1808
1825
1867
1903
1917
1913
1925
1951
1982
1998
1973
1943
1942
1943
1934
1904
1894
1894
1859
1826
1791
1783
1797
1805
1789
1758
1759
1779
1783
1775
1748
1753
1782
1838
1904
1952
1994
2066
2306
2798
3615
4095
3376
2496
1814
1399
1358
1527
1702
1757
1724
1705
1706
1703
1685
1671
1687
1711
1712
1703
1689
1712
1739
1749
1737
1727
1746
1776
1785
1781
1761
1782
1805
1815
1808
1797
1823
1846
1858
1849
1834
1862
1890
1904
1904
1898
1923
1959
1971
1975
1963
1994
2023
2034
2032
2022
2059
2081
2082
2060
2023
2023
2018
1997
1951
1904
1892
1885
1854
1823
1786
1787
1789
1775
1744
1722
1741
1758
1754
1735
1717
1734
1756
1762
1749
1735
1754
1774
1776
1759
1743
1762
1774
1769
1753
1741
1759
1775
1778
1765
1757
1776
1782
1777
1764
1758
1778
1794
1796
1777
1766
1780
1792
1794
1778
1772
1787
1797
1799
1789
1779
1799
1803
1802
1789
1778
1796
1808
1805
1785
1776
1797
1808
1798
1771
1765
1783
1797
1787
1773
1760
1785
1801
1808
1808
1825
1869
1907
1915
1903
1917
1968
1972
1937
1897
1886
1907
1918
1904
1871
1833
1821
1812
1797
1766
1751
1774
1779
1776
1762
1754
1767
1776
1774
1751
1762
1840
1922
1975
1981
2112
2456
3087
3902
3615
2733
2096
1653
1422
1420
1570
1712
1767
1755
1715
1701
1721
1729
1727
1715
1719
1744
1747
1745
1733
1741
1765
1777
1777
1773
1779
1801
1809
1811
1797
1806
1829
1842
1844
1834
1845
1879
1900
1895
1887
1901
1921
1938
1947
1943
1958
1985
2003
2007
2000
2020
2064
2081
2080
2066
2069
2079
2066
2041
2000
1983
1970
1943
1911
1872
1860
1857
1840
1817
1777
1779
1794
1798
1786
1762
1766
1792
1798
1786
1765
1770
1786
1783
1776
1761
1776
1791
1792
1785
1771
1777
1790
1793
1783
1761
1775
1791
1794
1787
1767
1778
1799
1803
1786
1769
1777
1801
1797
1790
1772
1782
1795
1805
1799
1782
1791
1804
1808
1801
1791
1803
1816
1814
1798
1790
1809
1829
1840
1836
1828
1862
1904
1930
1936
1923
1947
1990
2007
1983
1935
1926
1937
1937
1921
1892
1884
1856
1825
1799
1776
1777
1780
1779
1766
1747
1760
1779
1777
1768
1751
1773
1808
1893
1975
2030
2086
2249
2611
3225
3951
3526
2653
1966
1506
1330
1434
1621
1737
1743
1713
1707
1712
1711
1699
1695
1722
1738
1743
1733
1723
1744
1774
1779
1773
1763
1793
1813
1833
1817
1806
1826
1845
1855
1843
1839
1858
1879
1899
1894
1890
1915
1936
1951
1949
1950
1982
2010
2022
2017
2018
2047
2070
2079
2065
2059
2082
2095
2081
2045
2013
2003
1984
1955
1910
1874
1872
1858
1834
1799
1776
1782
1781
1771
1744
1730
1747
1762
1757
1742
1733
1755
1765
1757
1743
1739
1761
1779
1777
1756
1747
1773
1779
1778
1759
1756
1778
1788
1785
1762
1751
1775
1782
1783
1763
1755
1776
1787
1783
1765
1759
1776
1783
1782
1761
1761
1783
1795
1786
1773
1773
1793
1806
1798
1776
1776
1799
1804
1797
1781
1792
1828
1861
1891
1904
1925
1955
1968
1987
1984
1968
1959
1947
1941
1917
1906
1914
1897
1847
1799
1785
1798
1801
1782
1755
1757
1773
1775
1773
1746
1737
1758
1770
1776
1823
1927
2032
2090
2187
2464
3024
3911
3893
2943
2119
1535
1319
1389
1578
1693
1737
1733
1712
1686
1655
1662
1685
1703
1695
1681
1694
1725
1730
1733
1717
1735
1763
1776
1776
1761
1776
1801
1809
1808
1792
1809
1837
1847
1849
1839
1857
1890
1906
1911
1904
1920
1963
1983
1986
1974
1998
2034
2059
2058
2043
2065
2097
2107
2097
2069
2058
2055
2032
1989
1943
1924
1916
1898
1862
1823
1821
1825
1818
1794
1766
1771
1779
1778
1768
1751
1766
1787
1791
1775
1753
1772
1791
1799
1783
1762
1778
1803
1806
1792
1767
1785
1802
1808
1793
1776
1793
1811
1813
1794
1776
1791
1808
1813
1795
1778
1794
1814
1814
1801
1782
1801
1814
1812
1797
1775
1795
1810
1813
1797
1781
1798
1808
1806
1786
1773
1792
1808
1809
1796
1779
1795
1815
1824
1807
1790
1803
1819
1821
1808
1795
1815
1831
1839
1810
1797
1813
1827
1822
1808
1791
1817
1830
1830
1805
1792
1814
1831
1833
1813
1793
1818
1840
1853
1839
1840
1883
1920
1934
1922
1919
1961
1997
1984
1937
1904
1915
1929
1918
1877
1843
1837
1819
1805
1776
1754
1767
1777
1775
1744
1729
1757
1769
1773
1749
1744
1805
1906
1991
2025
2064
2281
2749
3520
4095
3536
2619
1885
1429
1328
1467
1674
1767
1759
1703
1667
1683
1698
1699
1679
1675
1705
1725
1731
1717
1710
1741
1759
1763
1747
1753
1776
1795
1801
1792
1787
1808
1831
1838
1822
1826
1860
1878
1886
1869
1872
1905
1933
1942
1933
1941
1983
2003
2026
2007
2026
2064
2096
2096
2064
2075
2106
2097
2103
2070
2032
2029
2032
1985
1922
1905
1904
1894
1872
1824
1807
1818
1822
1805
1770
1782
1755
1790
1790
1758
1761
1787
1787
1774
1733
1751
1775
1779
1773
1756
1760
1802
1789
1783
1753
1754
1785
1791
1778
1748
1758
1767
1776
1761
1739
1744
1767
1778
1777
1749
1751
1766
1782
1770
1752
1759
1785
1794
1780
1754
1757
1787
1794
1785
1770
1783
1806
1804
1790
1762
1771
1793
1801
1792
1763
1775
1793
1799
1787
1769
1776
1803
1811
1799
1775
1786
1808
1812
1797
1776
1788
1808
1814
1803
1777
1793
1822
1819
1805
1778
1794
1809
1814
1808
1792
1802
1823
1829
1811
1795
1809
1826
1831
1826
1811
1830
1847
1856
1843
1835
1863
1903
1923
1922
1920
1952
1985
2014
2014
1981
1968
1968
1965
1953
1918
1922
1909
1877
1843
1823
1834
1840
1829
1808
1789
1803
1817
1821
1805
1785
1803
1829
1891
1963
1998
2031
2170
2511
3120
3995
3889
2945
2182
1614
1369
1453
1643
1760
1763
1728
1726
1730
1728
1709
1697
1727
1749
1757
1744
1737
1757
1780
1783
1771
1767
1789
1812
1824
1812
1806
1827
1853
1847
1835
1831
1861
1886
1892
1885
1886
1917
1935
1936
1932
1933
1963
1984
1998
1990
1990
2027
2057
2061
2046
2058
2095
2111
2107
2079
2062
2068
2064
2026
1979
1939
1936
1923
1895
1853
1821
1831
1833
1821
1790
1776
1793
1805
1804
1776
1768
1792
1799
1798
1776
1774
1799
1815
1815
1793
1789
1808
1822
1815
1793
1786
1808
1819
1814
1788
1777
1803
1818
1817
1805
1803
1834
1840
1838
1803
1792
1821
1830
1820
1805
1811
1834
1833
1830
1807
1807
1827
1835
1825
1801
1796
1825
1831
1821
1795
1795
1826
1834
1821
1797
1801
1825
1836
1827
1806
1805
1823
1835
1829
1805
1808
1840
1846
1840
1813
1820
1843
1856
1849
1823
1829
1855
1867
1867
1861
1889
1937
1967
1968
1949
1974
2015
2018
1982
1936
1935
1950
1951
1933
1881
1851
1846
1840
1823
1783
1786
1803
1803
1789
1762
1767
1791
1796
1786
1763
1815
1936
2026
2057
2078
2319
2835
3701
4095
3351
2479
1817
1439
1394
1530
1706
1783
1780
1739
1688
1685
1711
1718
1709
1690
1700
1727
1730
1725
1708
1722
1749
1759
1754
1737
1758
1789
1795
1790
1776
1795
1821
1831
1821
1803
1825
1856
1867
1869
1854
1877
1910
1929
1927
1921
1949
1978
1990
1988
1977
2002
2027
2039
2032
2015
2032
2047
2034
2001
1953
1941
1937
1909
1872
1819
1808
1800
1778
1746
1723
1726
1731
1728
1714
1694
1708
1723
1723
1708
1687
1706
1722
1719
1703
1686
1709
1726
1724
1712
1698
1717
1740
1738
1725
1703
1723
1744
1751
1732
1717
1741
1758
1761
1744
1728
1747
1760
1761
1744
1727
1746
1767
1772
1745
1730
1750
1770
1770
1751
1739
1766
1782
1782
1760
1748
1768
1789
1788
1770
1757
1777
1798
1797
1777
1761
1782
1801
1803
1785
1777
1802
1818
1827
1819
1835
1885
1925
1943
1929
1917
1950
1986
1985
1935
1903
1914
1920
1918
1880
1850
1844
1831
1810
1775
1753
1773
1780
1770
1741
1731
1748
1753
1751
1732
1726
1762
1841
1935
1981
2001
2106
2407
2973
3849
3963
3071
2283
1676
1355
1387
1585
1738
1779
1744
1712
1719
1726
1718
1693
1698
1726
1741
1744
1726
1729
1754
1767
1767
1754
1759
1786
1807
1804
1785
1792
1825
1840
1847
1829
1835
1863
1877
1882
1872
1882
1914
1935
1939
1925
1936
1970
1997
2000
1998
2013
2056
2073
2073
2059
2064
2089
2091
2074
2031
2013
2009
1991
1952
1907
1890
1886
1868
1839
1803
1798
1814
1811
1794
1765
1763
1776
1783
1778
1755
1763
1782
1792
1785
1765
1770
1785
1791
1777
1758
1762
1787
1791
1776
1747
1758
1776
1787
1781
1759
1762
1781
1790
1776
1755
1759
1777
1788
1782
1763
1775
1795
1797
1779
1759
1770
1783
1783
1770
1746
1759
1778
1778
1766
1744
1758
1779
1787
1774
1749
1775
1790
1801
1789
1769
1779
1797
1806
1797
1776
1789
1808
1818
1806
1780
1795
1823
1837
1839
1851
1886
1927
1942
1930
1925
1971
2003
1981
1936
1913
1930
1939
1927
1901
1847
1834
1838
1829
1799
1775
1783
1791
1794
1776
1763
1783
1797
1789
1773
1766
1833
1926
1999
2005
2067
2367
2928
3829
3968
3035
2286
1725
1423
1399
1535
1707
1776
1765
1716
1680
1693
1712
1714
1702
1689
1712
1728
1733
1717
1709
1733
1755
1760
1744
1743
1770
1783
1785
1772
1766
1798
1815
1815
1802
1802
1831
1851
1853
1841
1846
1873
1904
1916
1908
1911
1941
1968
1983
1978
1977
2010
2031
2035
2026
2022
2043
2055
2032
1991
1961
1954
1936
1906
1857
1822
1825
1818
1801
1762
1741
1755
1763
1751
1728
1723
1741
1751
1753
1736
1729
1755
1770
1765
1746
1742
1763
1776
1773
1747
1744
1769
1777
1771
1755
1749
1772
1782
1783
1766
1763
1795
1806
1796
1781
1780
1805
1810
1807
1780
1776
1801
1808
1803
1781
1787
1811
1818
1808
1783
1782
1811
1820
1808
1784
1783
1803
1815
1809
1786
1783
1806
1811
1808
1785
1787
1811
1820
1810
1794
1793
1815
1828
1823
1807
1818
1858
1902
1920
1927
1938
1962
1983
2001
1988
1959
1954
1953
1939
1910
1904
1906
1879
1840
1807
1806
1818
1811
1805
1776
1776
1793
1799
1787
1764
1775
1797
1821
1872
1938
2017
2075
2169
2454
3001
3918
4014
3059
2246
1631
1365
1434
1618
1744
1759
1749
1744
1730
1712
1692
1707
1735
1744
1741
1723
1739
1763
1774
1765
1749
1774
1792
1805
1801
1791
1802
1827
1840
1837
1821
1840
1871
1876
1872
1859
1877
1904
1920
1920
1911
1939
1968
1993
1993
1987
2017
2055
2067
2064
2053
2074
2094
2097
2085
2059
2054
2043
2019
1969
1926
1911
1907
1883
1850
1810
1813
1813
1808
1787
1759
1775
1791
1791
1772
1749
1765
1777
1775
1759
1742
1763
1779
1777
1754
1735
1751
1774
1775
1747
1729
1753
1777
1767
1746
1730
1744
1772
1774
1748
1742
1758
1780
1779
1762
1729
1768
1792
1797
1771
1757
1775
1797
1794
1776
1773
1779
1795
1799
1793
1775
1797
1808
1808
1792
1775
1794
1813
1808
1791
1777
1799
1819
1819
1790
1787
1808
1820
1829
1803
1803
1821
1837
1834
1809
1809
1831
1842
1842
1831
1812
1819
1856
1869
1869
1887
1930
1968
1975
1958
1964
2009
2022
1986
1936
1919
1936
1939
1925
1882
1841
1841
1840
1825
1792
1775
1791
1798
1792
1771
1765
1788
1803
1798
1775
1787
1874
1974
2027
2023
2160
2559
3252
4095
3782
2821
2075
1557
1375
1454
1623
1749
1779
1750
1705
1682
1705
1716
1712
1696
1697
1726
1741
1743
1723
1727
1759
1775
1773
1759
1764
1798
1813
1819
1805
1808
1836
1851
1854
1843
1850
1882
1901
1900
1885
1898
1927
1947
1954
1945
1955
1988
2007
2016
2007
2030
2064
2079
2081
2064
2074
2096
2095
2063
2011
1985
1983
1966
1929
1883
1859
1859
1850
1823
1786
1776
1786
1786
1771
1749
1751
1776
1778
1769
1744
1757
1781
1785
1778
1753
1766
1786
1789
1777
1749
1766
1793
1807
1792
1769
1776
1797
1798
1791
1769
1776
1793
1802
1785
1762
1776
1794
1796
1779
1763
1774
1792
1791
1776
1757
1767
1792
1797
1788
1761
1776
1795
1799
1787
1765
1785
1808
1811
1802
1780
1794
1813
1817
1802
1782
1797
1819
1822
1808
1789
1803
1824
1826
1808
1789
1798
1813
1817
1803
1794
1817
1855
1886
1898
1903
1922
1947
1971
1989
1965
1945
1936
1936
1920
1891
1904
1902
1860
1809
1776
1776
1789
1787
1765
1745
1761
1775
1776
1758
1740
1750
1769
1797
1849
1904
1965
1998
2151
2512
3184
4010
3604
2704
1995
1514
1359
1456
1622
1714
1725
1727
1714
1697
1673
1663
1685
1712
1718
1710
1706
1727
1745
1746
1737
1732
1755
1774
1776
1760
1748
1778
1798
1808
1794
1789
1817
1840
1841
1831
1835
1866
1886
1893
1887
1892
1925
1950
1956
1941
1943
1979
1999
2007
2000
2000
2032
2054
2054
2027
2005
2011
2002
1970
1921
1890
1885
1873
1855
1817
1791
1799
1801
1787
1757
1746
1773
1776
1773
1744
1731
1757
1774
1775
1754
1750
1773
1778
1777
1758
1749
1775
1781
1776
1758
1753
1775
1786
1778
1754
1749
1774
1783
1779
1762
1758
1778
1792
1783
1765
1759
1782
1791
1792
1775
1776
1789
1798
1792
1775
1771
1797
1806
1796
1776
1779
1799
1808
1803
1779
1779
1799
1805
1797
1777
1783
1813
1839
1861
1871
1903
1937
1949
1945
1947
1968
1968
1951
1936
1914
1918
1925
1913
1879
1826
1807
1808
1805
1781
1750
1751
1771
1771
1754
1733
1739
1759
1767
1761
1775
1861
1969
2022
2059
2224
2654
3402
4067
3403
2512
1853
1457
1360
1474
1625
1719
1747
1734
1705
1676
1686
1712
1721
1712
1690
1706
1740
1751
1747
1733
1750
1778
1789
1781
1771
1781
1807
1815
1809
1798
1821
1851
1871
1868
1853
1869
1894
1904
1906
1898
1919
1952
1968
1968
1962
1987
2023
2034
2032
2027
2054
2083
2098
2086
2067
2071
2075
2053
2011
1964
1952
1947
1925
1884
1846
1840
1841
1829
1805
1778
1791
1803
1794
1781
1763
1779
1797
1803
1782
1769
1776
1791
1794
1781
1773
1788
1801
1795
1779
1765
1782
1801
1806
1790
1776
1791
1808
1806
1790
1774
1793
1810
1809
1798
1781
1807
1825
1829
1807
1794
1813
1829
1829
1808
1792
1811
1830
1826
1806
1791
1810
1831
1829
1811
1794
1818
1839
1840
1830
1824
1867
1911
1936
1946
1951
1974
2000
2030
2007
1958
1949
1959
1956
1936
1910
1906
1885
1855
1817
1789
1795
1800
1793
1770
1755
1771
1776
1773
1754
1744
1766
1782
1825
1895
1972
2041
2099
2311
2766
3543
4095
3357
2478
1774
1363
1344
1518
1675
1715
1698
1695
1686
1680
1655
1651
1685
1709
1711
1685
1682
1713
1729
1728
1712
1712
1742
1761
1759
1740
1742
1776
1791
1792
1776
1779
1809
1831
1834
1822
1834
1863
1882
1882
1875
1889
1931
1952
1967
1958
1968
2005
2025
2030
2019
2023
2061
2067
2060
2019
2000
2000
1984
1953
1898
1871
1870
1855
1821
1776
1757
1770
1767
1754
1726
1723
1744
1745
1740
1714
1715
1741
1745
1734
1714
1717
1744
1747
1744
1718
1719
1743
1744
1737
1715
1718
1743
1750
1746
1729
1730
1758
1766
1759
1733
1743
1768
1776
1770
1744
1747
1776
1789
1775
1753
1757
1786
1790
1778
1757
1765
1792
1803
1790
1762
1771
1788
1796
1789
1767
1776
1805
1813
1809
1799
1829
1876
1911
1921
1906
1922
1969
2001
1974
1913
1904
1930
1935
1907
1870
1850
1835
1812
1791
1757
1761
1774
1771
1751
1727
1738
1757
1759
1744
1725
1741
1777
1845
1918
1959
1990
2103
2410
2983
3846
3813
2915
2180
1627
1344
1388
1578
1712
1743
1703
1695
1692
1687
1677
1667
1689
1711
1722
1712
1708
1725
1744
1751
1744
1735
1749
1771
1777
1767
1760
1781
1810
1820
1805
1793
1821
1847
1855
1852
1845
1874
1903
1918
1907
1905
1936
1967
1980
1977
1974
2000
2029
2034
2031
2025
2039
2061
2055
2015
1983
1975
1969
1941
1899
1859
1856
1850
1827
1791
1765
1778
1785
1776
1750
1734
1751
1770
1762
1743
1728
1753
1763
1765
1750
1735
1751
1763
1760
1743
1732
1738
1760
1754
1737
1729
1749
1767
1761
1741
1730
1750
1760
1758
1742
1731
1753
1759
1757
1743
1734
1761
1773
1764
1744
1743
1763
1776
1776
1758
1758
1781
1791
1787
1766
1763
1789
1797
1791
1771
1765
1792
1802
1793
1776
1775
1798
1813
1815
1819
1842
1898
1926
1931
1914
1929
1973
1972
1937
1904
1904
1931
1934
1904
1861
1824
1810
1808
1795
1765
1760
1776
1779
1770
1743
1737
1759
1770
1763
1746
1762
1846
1936
1998
2000
2099
2425
3016
3888
3792
2882
2162
1641
1374
1387
1558
1715
1758
1739
1687
1677
1684
1697
1691
1674
1683
1713
1733
1727
1711
1717
1744
1751
1753
1740
1746
1775
1788
1787
1767
1773
1823
1822
1815
1803
1811
1840
1857
1865
1853
1862
1894
1914
1927
1911
1940
1969
1993
1997
1986
2003
2029
2041
2035
2027
2032
2065
2054
2017
1970
1942
1941
1921
1891
1846
1830
1831
1815
1791
1773
1758
1772
1773
1751
1729
1742
1766
1777
1758
1746
1760
1775
1778
1775
1756
1776
1787
1814
1778
1763
1776
1792
1801
1791
1768
1783
1803
1801
1786
1775
1789
1805
1803
1791
1776
1792
1807
1807
1793
1778
1795
1811
1811
1795
1776
1790
1808
1809
1797
1776
1794
1809
1809
1798
1780
1799
1818
1813
1797
1781
1803
1837
1827
1809
1794
1808
1826
1834
1820
1803
1825
1847
1859
1870
1879
1930
1965
1969
1953
1959
1998
2000
1969
1933
1908
1928
1937
1926
1879
1833
1823
1818
1809
1785
1760
1775
1781
1775
1751
1737
1757
1776
1775
1759
1771
1874
1987
2047
2064
2187
2587
3267
4095
3710
2752
2007
1509
1344
1436
1613
1733
1754
1727
1680
1658
1675
1690
1687
1667
1666
1698
1718
1723
1705
1697
1726
1743
1744
1727
1725
1755
1771
1776
1762
1762
1800
1825
1833
1821
1819
1851
1873
1881
1867
1873
1914
1938
1953
1946
1951
1986
2017
2030
2022
2030
2066
2091
2096
2077
2070
2088
2086
2064
2013
1972
1973
1961
1929
1883
1856
1857
1849
1834
1797
1786
1807
1808
1803
1782
1776
1799
1813
1807
1783
1779
1807
1817
1809
1781
1782
1800
1808
1807
1781
1778
1806
1815
1808
1781
1781
1808
1815
1810
1787
1785
1811
1822
1814
1792
1792
1813
1824
1811
1787
1790
1808
1819
1816
1793
1794
1817
1823
1812
1790
1792
1815
1828
1817
1792
1791
1811
1825
1816
1792
1797
1821
1830
1817
1796
1804
1824
1830
1820
1795
1802
1822
1830
1822
1799
1806
1828
1840
1831
1808
1818
1842
1844
1833
1809
1815
1839
1845
1834
1808
1824
1850
1867
1871
1869
1899
1937
1959
1951
1930
1967
2022
2020
1982
1929
1925
1945
1941
1915
1871
1843
1842
1836
1808
1777
1779
1792
1790
1776
1750
1763
1783
1781
1769
1749
1793
1893
1974
2006
2015
2204
2655
3408
4095
3519
2631
1922
1456
1341
1464
1664
1769
1775
1726
1680
1681
1702
1707
1701
1685
1703
1716
1729
1723
1712
1728
1749
1761
1751
1742
1755
1784
1794
1791
1776
1795
1820
1827
1820
1814
1841
1869
1872
1866
1855
1885
1905
1926
1922
1920
1954
1986
2000
1999
1994
2022
2043
2058
2047
2032
2058
2075
2067
2033
1990
1984
1968
1937
1890
1847
1844
1838
1816
1776
1746
1760
1767
1766
1738
1715
1735
1748
1745
1727
1717
1735
1748
1746
1729
1716
1739
1753
1749
1730
1722
1743
1757
1749
1730
1715
1742
1751
1755
1733
1718
1742
1749
1745
1729
1725
1744
1759
1755
1730
1723
1742
1754
1754
1741
1731
1744
1754
1750
1733
1728
1744
1754
1747
1728
1725
1751
1766
1762
1735
1735
1758
1767
1762
1744
1738
1765
1774
1768
1745
1744
1770
1776
1776
1749
1744
1767
1776
1776
1757
1758
1776
1790
1790
1771
1767
1791
1803
1797
1776
1771
1801
1817
1829
1829
1853
1896
1920
1923
1911
1936
1979
1968
1929
1891
1887
1911
1907
1891
1847
1811
1813
1805
1789
1755
1751
1766
1776
1762
1744
1746
1764
1769
1763
1755
1813
1904
1968
1979
2056
2362
2962
3858
3839
2905
2176
1664
1406
1415
1561
1702
1769
1763
1729
1687
1694
1714
1722
1718
1702
1716
1739
1750
1744
1732
1745
1770
1780
1781
1766
1775
1793
1808
1807
1792
1808
1839
1846
1842
1823
1840
1872
1877
1878
1872
1890
1924
1936
1936
1934
1956
1993
2005
2008
2000
2026
2056
2064
2057
2032
2047
2064
2055
2017
1977
1964
1954
1935
1899
1858
1853
1854
1841
1811
1778
1783
1798
1794
1782
1761
1776
1790
1794
1783
1765
1778
1798
1798
1789
1775
1789
1805
1808
1796
1780
1791
1809
1808
1799
1781
1793
1809
1814
1799
1779
1792
1807
1806
1794
1776
1793
1815
1814
1799
1785
1806
1822
1818
1808
1789
1803
1813
1818
1807
1792
1808
1821
1817
1801
1787
1803
1817
1822
1808
1789
1807
1818
1815
1802
1789
1803
1821
1825
1809
1796
1809
1829
1840
1828
1830
1872
1920
1941
1946
1936
1957
1993
2011
1973
1934
1931
1937
1936
1911
1889
1886
1862
1838
1808
1789
1795
1799
1791
1767
1749
1776
1789
1789
1767
1761
1790
1840
1931
1999
2032
2111
2335
2802
3572
4095
3391
2516
1833
1417
1357
1534
1716
1785
1758
1720
1721
1726
1722
1705
1702
1729
1744
1744
1731
1731
1757
1776
1778
1763
1768
1795
1809
1813
1798
1794
1821
1840
1844
1834
1839
1866
1888
1892
1876
1883
1915
1939
1947
1939
1952
1990
2017
2032
2028
2037
2080
2097
2102
2080
2084
2109
2116
2096
2046
2017
2013
1997
1967
1918
1884
1877
1871
1840
1798
1776
1796
1798
1783
1747
1744
1772
1782
1776
1749
1747
1775
1787
1776
1740
1739
1764
1777
1773
1744
1744
1769
1778
1774
1744
1744
1767
1776
1769
1743
1744
1776
1785
1777
1751
1747
1776
1791
1787
1755
1759
1787
1797
1791
1755
1761
1790
1803
1791
1759
1766
1795
1808
1802
1773
1775
1802
1810
1801
1767
1772
1807
1815
1805
1777
1782
1809
1815
1808
1781
1789
1814
1821
1808
1779
1790
1815
1824
1811
1786
1793
1823
1829
1815
1794
1807
1839
1858
1876
1882
1918
1957
1968
1965
1967
1994
2002
1978
1946
1920
1927
1936
1931
1893
1837
1825
1829
1823
1802
1776
1785
1795
1792
1779
1762
1778
1802
1805
1794
1830
1936
2021
2062
2109
2355
2913
3858
4095
3246
2356
1712
1394
1419
1594
1725
1782
1778
1759
1727
1709
1723
1733
1733
1715
1712
1732
1748
1748
1744
1744
1774
1792
1791
1779
1772
1793
1816
1819
1813
1811
1839
1858
1865
1858
1859
1879
1899
1904
1904
1914
1941
1967
1975
1974
1978
2009
2032
2047
2053
2063
2089
2100
2100
2088
2077
2095
2085
2056
2013
1979
1962
1937
1904
1863
1840
1831
1815
1792
1773
1760
1764
1771
1758
1739
1721
1740
1748
1747
1739
1735
1741
1748
1755
1731
1734
1757
1751
1751
1726
1744
1756
1754
1746
1739
1742
1757
1759
1756
1744
1745
1761
1769
1759
1734
1747
1767
1769
1760
1749
1758
1776
1767
1760
1747
1751
1771
1772
1772
1749
1760
1779
1769
1771
1760
1766
1773
1776
1766
1746
1773
1783
1781
1773
1761
1787
1804
1783
1767
1759
1766
1777
1776
1767
1750
1758
1776
1780
1783
1785
1814
1847
1872
1883
1878
1891
1927
1954
1937
1899
1892
1901
1891
1873
1854
1843
1823
1794
1770
1749
1755
1763
1755
1744
1730
1744
1750
1744
1737
1732
1749
1791
1854
1914
1943
1999
2224
2674
3441
3989
3287
2480
1840
1438
1343
1472
1650
1727
1724
1693
1680
1681
1665
1664
1663
1685
1698
1698
1694
1697
1717
1733
1729
1727
1731
1749
1765
1757
1749
1754
1780
1795
1797
1795
1800
1830
1843
1839
1834
1835
1858
1879
1887
1886
1895
1920
1942
1951
1954
1972
2001
2015
2021
2027
2032
2057
2063
2041
2017
1996
1983
1966
1937
1901
1870
1856
1843
1815
1794
1776
1779
1781
1772
1761
1746
1762
1766
1766
1761
1757
1781
1786
1776
1766
1767
1777
1774
1755
1747
1759
1778
1775
1767
1757
1757
1776
1776
1773
1762
1749
1771
1777
1769
1755
1749
1767
1776
1767
1744
1747
1776
1783
1778
1774
1775
1790
1787
1779
1776
1773
1794
1797
1795
1785
1782
1802
1808
1803
1789
1786
1807
1812
1811
1796
1795
1822
1830
1831
1846
1881
1920
1942
1939
1934
1958
1999
1989
1950
1919
1921
1936
1934
1913
1887
1852
1841
1819
1798
1776
1766
1776
1777
1766
1754
1756
1779
1778
1770
1763
1797
1888
1976
2031
2054
2211
2610
3280
4043
3550
2660
1963
1493
1338
1439
1625
1744
1754
1721
1687
1683
1703
1701
1687
1680
1695
1716
1719
1718
1716
1727
1747
1744
1743
1744
1767
1781
1786
1786
1783
1802
1824
1831
1837
1833
1853
1873
1873
1877
1885
1907
1934
1952
1959
1965
1985
2016
2029
2037
2045
2066
2096
2107
2106
2095
2091
2099
2078
2036
2000
1999
2018
2022
2015
2007
2034
2075
2067
2027
1941
1858
1771
1680
1627
1628
1677
1722
1747
1787
1843
2003
2183
2263
2226
2057
1869
1727
1646
1619
1603
1600
1600
1598
1622
1658
1709
1741
1743
1734
1733
1771
1814
1830
1815
1809
1847
1859
1803
1722
1666
1679
1706
1719
1714
1706
1715
1729
1728
1722
1738
1771
1772
1770
1792
1802
1794
1793
1815
1845
1829
1773
1705
1665
1655
1665
1715
1758
1765
1741
1714
1720
1739
1766
1799
1812
1828
1829
1835
1847
1869
1895
1923
1939
1931
1903
1903
1897
1876
1871
1866
1867
1840
1797
1774
1761
1773
1766
1758
1749
1745
1763
1770
1760
1753
1749
1773
1798
1869
1957
2026
2089
2207
2548
3165
4016
3792
2832
2029
1482
1300
1441
1648
1744
1753
1734
1721
1705
1687
1680
1685
1708
1712
1714
1714
1716
1738
1749
1752
1750
1760
1782
1792
1783
1777
1779
1808
1825
1833
1829
1835
1865
1895
1911
1904
1883
1882
1889
1904
1920
1949
1982
1998
2000
1998
2009
2038
2064
2069
2076
2094
2115
2118
2110
2081
2057
2033
2002
1968
1931
1905
1899
1872
1830
1797
1789
1793
1780
1760
1737
1735
1751
1749
1744
1728
1734
1747
1749
1744
1751
1771
1792
1792
1789
1808
1850
1861
1798
1706
1649
1657
1709
1728
1733
1737
1744
1763
1764
1763
1757
1762
1776
1782
1775
1768
1774
1787
1787
1776
1767
1773
1783
1783
1774
1763
1766
1776
1773
1773
1760
1769
1782
1779
1770
1762
1778
1801
1797
1789
1776
1779
1791
1789
1787
1777
1789
1808
1808
1804
1795
1808
1835
1842
1865
1884
1921
1951
1936
1932
1951
1978
1973
1943
1923
1917
1929
1923
1906
1872
1837
1827
1833
1821
1803
1789
1793
1807
1799
1791
1787
1796
1799
1790
1793
1834
1926
2014
2035
2086
2319
2831
3699
4077
3211
2390
1795
1459
1409
1535
1705
1783
1797
1771
1742
1728
1741
1749
1743
1735
1744
1771
1783
1776
1769
1767
1789
1808
1809
1807
1809
1837
1854
1840
1834
1834
1856
1875
1876
1874
1878
1899
1918
1917
1914
1917
1946
1964
1968
1974
1981
2010
2035
2046
2044
2047
2077
2096
2091
2089
2087
2094
2083
2039
2002
1968
1962
1939
1908
1873
1843
1845
1835
1811
1787
1767
1775
1776
1764
1751
1745
1764
1767
1758
1747
1747
1767
1771
1763
1754
1750
1776
1788
1799
1805
1797
1803
1795
1776
1763
1754
1767
1775
1763
1746
1742
1759
1776
1772
1761
1751
1765
1775
1771
1763
1762
1782
1797
1799
1787
1776
1776
1776
1770
1751
1742
1755
1755
1744
1731
1717
1741
1750
1755
1766
1790
1833
1863
1872
1858
1863
1909
1928
1902
1863
1849
1867
1875
1871
1851
1826
1808
1779
1744
1709
1690
1713
1729
1724
1701
1677
1689
1699
1705
1690
1680
1744
1851
1941
1975
2019
2258
2725
3465
3852
3087
2320
1742
1388
1298
1423
1615
1723
1735
1687
1647
1658
1680
1684
1664
1641
1671
1705
1715
1700
1678
1711
1745
1759
1741
1717
1748
1781
1792
1771
1754
1786
1821
1827
1802
1778
1812
1850
1858
1838
1824
1872
1914
1936
1910
1897
1947
2000
2028
2002
1978
2001
2032
2035
2005
1977
2000
2019
2011
1942
1883
1903
1907
1875
1808
1751
1766
1794
1777
1728
1690
1714
1735
1728
1681
1650
1686
1727
1727
1683
1650
1689
1737
1749
1711
1683
1725
1751
1746
1702
1667
1714
1757
1755
1708
1669
1710
1746
1745
1694
1667
1713
1751
1751
1697
1668
1715
1747
1744
1701
1680
1726
1767
1754
1701
1674
1727
1760
1763
1717
1702
1761
1799
1808
1787
1793
1872
1935
1933
1878
1883
1966
1988
1951
1879
1856
1898
1923
1905
1820
1762
1789
1811
1799
1730
1703
1744
1780
1770
1712
1684
1737
1776
1769
1713
1705
1829
1957
2025
1996
2070
2415
3006
3863
3789
2887
2155
1616
1344
1332
1502
1694
1744
1709
1614
1573
1614
1645
1633
1571
1577
1647
1680
1662
1598
1579
1622
1653
1626
1535
1554
1616
1615
1535
1443
1410
1520
1590
1584
1488
1469
1535
1581
1566
1526
1535
1616
1635
1616
1555
1616
1741
1847
1941
1966
2000
1971
1891
1786
1638
1535
1510
1453
1332
1181
1069
986
894
788
663
616
634
661
695
711
801
950
1062
1103
1103
1168
1296
1387
1409
1392
1441
1535
1588
1559
1487
1485
1525
1576
1583
1535
1587
1654
1669
1631
1563
1567
1612
1618
1579
1499
1517
1570
1578
1524
1446
1462
1524
1535
1517
1456
1494
1567
1591
1565
1515
1558
1629
1664
1654
1617
1675
1747
1786
1773
1719
1730
1777
1819
1836
1852
1965
2106
2187
2201
2181
2249
2357
2409
2365
2301
2340
2410
2434
2396
2336
2347
2379
2384
2336
2266
2290
2337
2343
2293
2230
2257
2307
2320
2285
2231
2276
2368
2475
2525
2529
2608
2834
3344
4095
4095
4095
3716
2783
2157
1886
2027
2258
2375
2339
2256
2261
2298
2304
2257
2207
2247
2292
2293
2243
2197
2238
2290
2294
2243
2194
2241
2289
2296
2246
2198
2238
2289
2303
2250
2203
2250
2299
2305
2254
2210
2257
2310
2320
2274
2233
2287
2343
2362
2315
2287
2341
2394
2410
2352
2317
2366
2404
2391
2320
2256
2279
2291
2263
2176
2099
2122
2145
2129
2045
1987
2023
2065
2059
1983
1939
1984
2017
2014
1954
1925
1975
2007
2000
1933
1893
1943
1987
1983
1918
1878
1920
1958
1953
1893
1866
1911
1947
1940
1877
1853
1905
1941
1934
1871
1851
1904
1941
1930
1866
1841
1897
1926
1914
1847
1825
1879
1920
1907
1845
1815
1866
1903
1883
1814
1792
1843
1872
1851
1776
1757
1818
1856
1870
1835
1841
1917
1948
1936
1895
1902
1940
1946
1916
1846
1825
1859
1878
1840
1744
1712
1750
1771
1751
1693
1680
1735
1766
1741
1675
1663
1718
1751
1735
1687
1751
1905
1994
1997
2059
2405
3091
3943
3598
2640
1945
1533
1365
1408
1519
1643
1735
1749
1711
1630
1630
1686
1715
1708
1650
1662
1727
1755
1744
1684
1694
1754
1783
1764
1707
1717
1778
1808
1787
1732
1746
1808
1840
1819
1765
1787
1855
1889
1872
1814
1838
1906
1947
1929
1886
1919
1989
2026
2001
1945
1968
2032
2064
2034
1973
1983
2022
2023
1966
1879
1869
1898
1893
1831
1745
1756
1799
1802
1754
1689
1710
1755
1771
1731
1679
1705
1759
1776
1740
1674
1698
1748
1759
1715
1662
1683
1742
1754
1719
1665
1699
1755
1776
1739
1686
1718
1776
1791
1759
1703
1737
1794
1810
1773
1717
1751
1801
1818
1777
1728
1757
1806
1808
1769
1712
1746
1794
1803
1750
1697
1725
1770
1776
1735
1689
1730
1783
1795
1750
1707
1747
1798
1806
1759
1719
1775
1837
1857
1837
1821
1899
1965
1968
1920
1904
1967
2000
1977
1904
1859
1899
1938
1935
1858
1776
1791
1831
1830
1770
1719
1755
1795
1801
1744
1699
1744
1792
1802
1751
1735
1867
2012
2081
2054
2157
2583
3310
4095
3613
2651
1946
1500
1361
1424
1583
1726
1777
1754
1675
1627
1676
1721
1733
1689
1655
1707
1749
1756
1710
1685
1738
1789
1791
1744
1712
1770
1814
1819
1766
1745
1807
1862
1871
1815
1791
1853
1901
1905
1863
1851
1915
1967
1968
1927
1911
1977
2032
2037
1996
1979
2045
2094
2089
2029
2000
2052
2070
2033
1948
1893
1921
1935
1891
1805
1756
1787
1808
1783
1708
1677
1723
1756
1744
1677
1656
1707
1727
1707
1626
1607
1670
1712
1706
1646
1633
1692
1723
1715
1661
1648
1712
1750
1744
1686
1678
1739
1774
1759
1698
1693
1751
1783
1771
1710
1699
1759
1798
1781
1725
1723
1778
1809
1791
1730
1727
1782
1814
1802
1739
1734
1790
1823
1806
1749
1747
1807
1836
1817
1757
1759
1815
1847
1825
1761
1760
1816
1845
1827
1765
1773
1825
1855
1827
1767
1774
1836
1863
1840
1776
1783
1842
1869
1844
1782
1792
1849
1871
1843
1777
1789
1845
1871
1850
1791
1803
1859
1893
1878
1848
1887
1967
2000
1978
1939
1978
2037
2030
1971
1897
1904
1953
1963
1908
1819
1808
1855
1861
1824
1750
1765
1818
1827
1795
1743
1763
1811
1831
1798
1775
1883
2029
2103
2095
2193
2639
3443
4095
3699
2677
1935
1499
1408
1520
1648
1759
1813
1795
1735
1664
1685
1743
1763
1728
1680
1718
1777
1805
1772
1717
1747
1805
1823
1790
1741
1778
1842
1865
1830
1783
1821
1874
1895
1862
1820
1863
1921
1943
1914
1875
1927
1989
2015
1986
1950
2000
2067
2095
2063
2009
2056
2114
2135
2098
2043
2079
2118
2117
2038
1958
1968
1987
1969
1895
1821
1837
1861
1847
1782
1725
1755
1793
1799
1744
1701
1742
1789
1787
1738
1702
1744
1786
1788
1730
1691
1737
1786
1788
1733
1697
1744
1786
1787
1734
1697
1746
1792
1798
1744
1710
1751
1792
1795
1743
1711
1758
1805
1802
1746
1712
1759
1802
1804
1751
1714
1763
1798
1796
1744
1711
1765
1806
1807
1757
1724
1774
1811
1808
1756
1719
1776
1822
1815
1759
1733
1788
1825
1827
1767
1737
1791
1829
1823
1763
1729
1787
1826
1826
1770
1744
1796
1836
1834
1773
1744
1795
1840
1837
1776
1753
1806
1851
1843
1787
1767
1821
1865
1863
1815
1813
1891
1947
1965
1909
1899
1977
2032
2000
1910
1879
1935
1966
1947
1872
1831
1845
1856
1834
1762
1743
1791
1817
1805
1738
1726
1776
1804
1789
1728
1733
1843
1959
2000
1954
2032
2404
3035
3950
3807
2887
2192
1672
1408
1385
1535
1739
1799
1770
1677
1662
1716
1752
1739
1677
1680
1743
1777
1765
1706
1705
1774
1810
1802
1749
1757
1812
1847
1831
1777
1792
1854
1883
1869
1818
1837
1891
1920
1904
1854
1870
1936
1973
1967
1915
1929
1991
2026
2007
1957
1971
2038
2078
2061
1995
2005
2064
2096
2060
1973
1936
1940
1905
1835
1737
1727
1769
1782
1751
1699
1715
1774
1791
1761
1700
1716
1775
1792
1766
1712
1730
1777
1791
1767
1716
1737
1789
1812
1781
1728
1754
1809
1834
1801
1747
1773
1826
1840
1811
1755
1771
1809
1827
1793
1741
1770
1825
1841
1819
1751
1775
1831
1840
1810
1744
1803
1825
1834
1806
1752
1798
1840
1842
1810
1751
1791
1843
1871
1825
1763
1808
1841
1858
1833
1785
1824
1873
1872
1834
1789
1811
1862
1887
1840
1797
1821
1865
1872
1839
1795
1829
1872
1883
1840
1814
1829
1873
1879
1842
1805
1854
1922
1941
1931
1907
1981
2033
2070
2032
1961
1962
2001
2002
1967
1905
1920
1938
1910
1843
1791
1818
1843
1845
1793
1754
1800
1839
1856
1818
1778
1811
1840
1877
1930
1984
2064
2141
2368
2815
3574
4095
3367
2491
1777
1370
1381
1589
1747
1761
1720
1734
1758
1751
1698
1667
1719
1762
1767
1725
1703
1749
1797
1803
1759
1733
1785
1838
1839
1787
1761
1815
1863
1872
1827
1810
1863
1904
1908
1867
1846
1910
1951
1962
1917
1898
1955
2006
2019
1982
1977
2034
2087
2095
2042
2021
2080
2119
2112
2054
2018
2064
2068
2032
1950
1902
1925
1929
1893
1808
1775
1809
1835
1823
1759
1730
1775
1807
1796
1740
1723
1774
1802
1794
1738
1724
1774
1804
1790
1729
1715
1769
1792
1782
1734
1723
1772
1795
1792
1737
1729
1781
1805
1792
1733
1727
1777
1808
1792
1734
1733
1787
1810
1793
1731
1729
1784
1808
1797
1735
1728
1776
1805
1792
1743
1742
1789
1814
1804
1739
1739
1791
1809
1779
1719
1728
1794
1819
1803
1744
1744
1797
1819
1804
1746
1754
1803
1825
1807
1749
1750
1799
1831
1825
1787
1822
1903
1951
1938
1887
1909
1991
2009
1954
1867
1860
1907
1939
1909
1835
1799
1823
1839
1813
1756
1751
1790
1803
1771
1703
1720
1777
1792
1758
1703
1744
1871
1979
2007
1984
2155
2588
3294
4094
3563
2695
2010
1534
1350
1399
1601
1747
1776
1726
1643
1645
1687
1706
1681
1635
1660
1712
1734
1714
1675
1710
1763
1778
1751
1705
1739
1802
1837
1810
1758
1774
1819
1842
1826
1792
1826
1890
1919
1901
1860
1901
1963
1983
1958
1930
1968
2031
2055
2023
1971
1998
2042
2047
2009
1968
2001
2053
2064
2009
1946
1946
1962
1947
1884
1814
1819
1843
1840
1788
1728
1753
1793
1803
1763
1715
1755
1798
1808
1775
1737
1766
1808
1817
1776
1737
1775
1813
1814
1774
1735
1769
1808
1821
1776
1733
1774
1813
1811
1776
1743
1777
1817
1819
1783
1759
1802
1840
1835
1781
1744
1786
1833
1835
1788
1754
1799
1843
1841
1797
1761
1801
1840
1842
1798
1771
1819
1859
1861
1815
1782
1822
1856
1857
1810
1782
1824
1867
1861
1810
1783
1834
1872
1882
1859
1856
1931
1989
1991
1939
1941
2005
2028
1991
1924
1897
1950
1979
1957
1874
1804
1823
1843
1834
1776
1747
1791
1822
1812
1761
1734
1776
1805
1803
1761
1790
1920
2034
2065
2064
2272
2786
3643
4095
3206
2371
1807
1472
1402
1479
1624
1754
1790
1767
1706
1677
1720
1759
1755
1707
1695
1733
1763
1758
1712
1707
1761
1802
1802
1754
1746
1791
1809
1805
1761
1770
1847
1901
1888
1819
1799
1842
1888
1901
1866
1871
1936
1977
1984
1951
1951
2007
2043
2044
2004
2011
2070
2111
2110
2069
2066
2109
2122
2095
2015
1985
2002
1996
1959
1890
1869
1895
1903
1871
1807
1797
1840
1863
1841
1792
1786
1822
1840
1815
1755
1745
1791
1809
1789
1734
1733
1769
1788
1767
1717
1718
1770
1791
1774
1713
1721
1771
1793
1771
1717
1723
1767
1792
1775
1728
1735
1777
1783
1754
1702
1712
1750
1776
1759
1712
1722
1760
1778
1755
1712
1721
1776
1790
1766
1720
1735
1780
1798
1776
1726
1751
1804
1840
1842
1827
1872
1929
1936
1919
1903
1934
1953
1938
1905
1853
1859
1895
1889
1837
1760
1779
1837
1859
1829
1765
1765
1793
1793
1764
1724
1746
1783
1790
1769
1783
1899
2017
2055
2094
2319
2874
3782
3952
2993
2176
1633
1389
1408
1533
1634
1715
1749
1734
1687
1648
1680
1719
1721
1683
1645
1680
1726
1745
1721
1691
1728
1767
1776
1749
1713
1747
1797
1818
1787
1757
1794
1842
1863
1841
1824
1870
1916
1931
1890
1859
1903
1963
1995
1979
1966
2013
2067
2085
2055
2032
2075
2117
2127
2089
2043
2068
2091
2073
2003
1936
1936
1936
1915
1857
1794
1805
1829
1816
1763
1721
1751
1777
1776
1731
1705
1747
1788
1791
1744
1712
1741
1775
1777
1746
1719
1749
1785
1776
1728
1699
1744
1787
1781
1737
1707
1744
1786
1783
1742
1712
1754
1789
1792
1749
1727
1773
1806
1808
1759
1728
1767
1802
1805
1760
1741
1783
1808
1798
1742
1712
1750
1790
1794
1755
1735
1782
1808
1805
1759
1751
1799
1849
1872
1855
1861
1926
1958
1955
1934
1931
1965
1954
1933
1887
1869
1902
1908
1872
1795
1763
1798
1813
1798
1743
1728
1771
1789
1776
1728
1703
1744
1760
1747
1739
1825
1967
2045
2079
2202
2622
3399
4095
3487
2538
1830
1431
1355
1487
1621
1699
1744
1740
1707
1650
1643
1683
1708
1700
1660
1664
1716
1754
1747
1706
1712
1766
1799
1792
1745
1745
1793
1815
1808
1769
1775
1827
1858
1849
1806
1808
1863
1904
1904
1859
1862
1919
1965
1971
1936
1945
2000
2032
2032
1991
2001
2067
2091
2072
2021
2013
2042
2037
1993
1911
1886
1902
1894
1853
1786
1766
1791
1798
1775
1721
1714
1744
1754
1742
1690
1706
1754
1775
1761
1707
1712
1751
1775
1753
1713
1728
1773
1782
1762
1728
1739
1775
1779
1749
1699
1719
1771
1793
1774
1725
1737
1779
1797
1775
1728
1744
1783
1803
1785
1739
1759
1803
1823
1807
1765
1777
1809
1811
1781
1741
1762
1807
1819
1794
1750
1775
1821
1833
1808
1763
1782
1831
1839
1801
1759
1786
1839
1854
1819
1777
1794
1830
1843
1829
1809
1871
1936
1967
1940
1904
1936
1999
2017
1963
1893
1905
1938
1943
1913
1865
1866
1872
1850
1802
1742
1758
1783
1795
1767
1728
1744
1775
1779
1754
1721
1754
1838
1927
1971
1968
2046
2325
2845
3644
3930
3159
2395
1779
1392
1322
1519
1713
1783
1738
1678
1695
1735
1732
1694
1662
1702
1747
1760
1727
1691
1735
1783
1797
1759
1715
1756
1802
1807
1777
1759
1805
1840
1855
1826
1789
1837
1871
1905
1878
1869
1913
1958
1966
1937
1914
1972
2033
2055
2013
1985
2037
2087
2098
2061
2038
2094
2129
2127
2065
2016
2032
2030
2000
1927
1870
1883
1895
1874
1818
1776
1792
1800
1796
1744
1721
1760
1786
1782
1744
1717
1759
1795
1810
1744
1714
1746
1776
1777
1742
1725
1751
1793
1782
1738
1715
1760
1792
1789
1739
1723
1765
1803
1810
1765
1743
1778
1797
1783
1731
1723
1775
1808
1805
1755
1742
1783
1808
1795
1753
1746
1796
1817
1803
1750
1743
1787
1818
1808
1771
1765
1807
1833
1814
1761
1749
1797
1838
1836
1780
1770
1807
1844
1865
1845
1863
1936
1969
1969
1939
1937
1952
1948
1934
1885
1874
1905
1915
1885
1803
1775
1805
1818
1798
1742
1733
1779
1803
1785
1729
1728
1776
1803
1791
1776
1855
1971
2032
2063
2206
2649
3472
4095
3427
2494
1825
1458
1391
1502
1626
1722
1774
1769
1725
1664
1664
1712
1740
1727
1676
1687
1743
1773
1762
1721
1731
1781
1805
1794
1760
1770
1809
1830
1808
1765
1787
1839
1861
1846
1807
1832
1885
1915
1904
1874
1904
1961
1986
1975
1941
1968
2027
2062
2053
2017
2042
2096
2117
2094
2034
2042
2075
2067
2007
1927
1918
1935
1922
1874
1811
1812
1835
1825
1789
1733
1746
1782
1792
1761
1718
1741
1781
1792
1767
1728
1753
1795
1805
1776
1727
1743
1780
1792
1757
1712
1743
1791
1806
1767
1722
1744
1792
1805
1776
1736
1763
1805
1815
1791
1755
1775
1807
1809
1772
1728
1759
1802
1808
1776
1735
1762
1808
1823
1790
1746
1776
1810
1818
1791
1756
1792
1843
1854
1809
1759
1778
1815
1830
1808
1786
1839
1901
1933
1915
1886
1917
1966
2001
1984
1920
1923
1953
1958
1914
1869
1885
1897
1863
1794
1744
1776
1808
1803
1746
1712
1741
1778
1791
1753
1721
1755
1795
1837
1879
1936
2016
2090
2260
2647
3317
4071
3536
2625
1870
1392
1333
1511
1694
1733
1698
1707
1716
1715
1675
1647
1684
1725
1731
1692
1675
1723
1761
1772
1729
1703
1753
1798
1808
1769
1745
1793
1836
1840
1795
1778
1834
1876
1883
1854
1847
1903
1940
1941
1899
1875
1936
1987
2011
1982
1980
2035
2086
2093
2047
2039
2096
2128
2118
2062
2010
2030
2032
2001
1935
1885
1901
1896
1856
1790
1753
1782
1806
1792
1738
1712
1749
1776
1777
1729
1712
1757
1779
1776
1730
1719
1761
1791
1782
1733
1727
1778
1804
1786
1739
1726
1776
1809
1811
1766
1740
1778
1803
1794
1744
1734
1778
1809
1808
1765
1759
1807
1828
1824
1775
1762
1802
1823
1808
1758
1757
1805
1825
1810
1757
1748
1794
1819
1808
1763
1765
1810
1835
1819
1775
1774
1814
1840
1833
1791
1789
1840
1867
1863
1835
1866
1943
1987
1973
1921
1938
2019
2037
1986
1903
1901
1942
1967
1938
1871
1840
1851
1851
1822
1762
1767
1808
1819
1793
1735
1739
1792
1809
1790
1737
1744
1843
1956
2003
1983
2064
2375
2930
3795
3905
3051
2320
1751
1408
1357
1529
1730
1799
1773
1690
1685
1726
1745
1728
1677
1695
1748
1776
1756
1719
1733
1770
1790
1774
1733
1754
1807
1829
1808
1773
1792
1841
1859
1840
1795
1826
1874
1898
1879
1847
1877
1932
1962
1949
1923
1957
2003
2027
2018
1998
2030
2079
2090
2064
2026
2064
2102
2100
2036
1959
1954
1968
1953
1901
1834
1837
1853
1837
1786
1718
1731
1771
1789
1758
1718
1744
1776
1774
1734
1696
1731
1772
1776
1743
1698
1727
1771
1785
1755
1715
1742
1779
1783
1750
1712
1744
1781
1791
1760
1722
1748
1789
1799
1763
1724
1752
1790
1807
1776
1740
1767
1799
1808
1775
1739
1767
1793
1796
1749
1717
1760
1801
1809
1776
1743
1776
1808
1814
1781
1747
1781
1815
1825
1791
1776
1843
1914
1943
1919
1886
1930
2000
2025
1959
1895
1911
1954
1959
1904
1851
1863
1859
1835
1781
1739
1773
1803
1796
1755
1722
1758
1789
1791
1745
1719
1758
1823
1899
1936
1961
2027
2219
2608
3246
3933
3501
2663
1985
1501
1317
1454
1667
1777
1746
1699
1719
1744
1735
1686
1661
1709
1744
1746
1713
1697
1751
1791
1790
1748
1739
1791
1821
1825
1782
1765
1811
1846
1853
1818
1802
1856
1895
1901
1857
1845
1899
1935
1941
1914
1921
1983
2016
2013
1974
1970
2030
2077
2083
2032
2025
2074
2098
2083
2015
1983
2000
2001
1963
1885
1842
1856
1858
1838
1775
1749
1794
1809
1797
1744
1728
1769
1788
1787
1742
1734
1776
1806
1791
1744
1738
1777
1803
1792
1744
1739
1789
1812
1803
1751
1744
1781
1807
1792
1744
1739
1782
1808
1794
1748
1747
1798
1821
1806
1755
1754
1805
1825
1808
1754
1761
1813
1830
1805
1749
1747
1793
1814
1798
1745
1751
1794
1818
1801
1754
1769
1819
1842
1841
1814
1851
1926
1962
1950
1907
1936
2000
2006
1958
1887
1879
1922
1936
1909
1830
1795
1808
1813
1786
1731
1743
1779
1790
1762
1707
1719
1767
1787
1767
1721
1758
1879
1988
2027
2000
2127
2505
3124
3952
3679
2805
2095
1570
1330
1360
1568
1738
1776
1722
1648
1649
1686
1703
1680
1643
1667
1715
1733
1712
1669
1693
1744
1758
1737
1697
1718
1767
1779
1759
1722
1751
1808
1833
1817
1776
1801
1849
1871
1852
1829
1870
1925
1951
1936
1913
1961
2018
2046
2027
1994
2023
2080
2094
2066
2029
2061
2090
2071
2010
1935
1936
1953
1936
1881
1808
1808
1829
1822
1782
1725
1744
1777
1780
1737
1697
1741
1787
1792
1744
1690
1718
1771
1785
1744
1697
1728
1766
1777
1744
1703
1734
1773
1777
1744
1707
1743
1783
1795
1756
1725
1758
1792
1794
1757
1727
1764
1802
1808
1764
1723
1765
1809
1819
1777
1739
